0.009899 -0.290712 -0.764434 -0.985025 -0.866712 -0.807814 -0.854059 -0.841966 -0.819456 -0.827867 -0.818204 -0.797504 -0.786738 -0.772104 -0.752795 -0.736726 -0.718098 -0.697238 -0.680195 -0.660726 -0.636488 -0.615262 -0.592538 -0.561952 -0.530645 -0.497085 -0.453987 -0.410936 -0.376546 -0.345507 -0.314309 -0.284277 -0.260600 -0.249842 -0.250358 -0.259287 -0.276839 -0.296918 -0.312441 -0.320795 -0.320623 -0.315876 -0.310812 -0.301976 -0.288242 -0.275211 -0.264807 -0.253189 -0.238430 -0.223085 -0.208618 -0.194689 -0.182942 -0.172624 -0.162046 -0.154347 -0.146597 -0.132463 -0.120727 -0.118352 -0.114059 -0.105216 -0.101648 -0.099597 -0.092312 -0.085724 -0.082001 -0.076570 -0.070191 -0.065162 -0.059383 -0.049952 -0.040207 -0.036150 -0.032846 -0.023747 -0.014490 -0.004126 0.016084 0.036567 0.045609 0.054830 0.070695 0.077232 0.070618 0.068850 0.076424 0.078139 0.070486 0.064416 0.061273 0.056922 0.056661 0.061876 0.065271 0.069207 0.075408 0.076347 0.073140 0.046452 0.024570 0.230352 0.731412 1.005766 0.642168 0.126994 0.027388 0.139001 0.136948 0.101501 0.109794 0.103244 0.091859 0.097381 0.098281 0.098287 0.104521 0.105391 0.106102 0.110249 0.107812 0.113664 0.132096 0.120217 0.076086 0.055428 0.063578 0.064595 0.059659 0.060854 0.060958 0.058588 0.058092 0.057442 0.055784 0.054658 0.053518 0.051958 0.050511 0.049044 0.047387 0.045719 0.044017 0.042214 0.040371 0.038490 0.036546 0.034561 0.032541 0.030478 0.028382 0.026258 0.024106 0.021930 0.019736 0.017526 0.015304 0.013073 0.010839 0.008603 0.006371 0.004146 0.001933 -0.000266 -0.002445 -0.004600 -0.006729 -0.008826 -0.010887 -0.012908 -0.014885 -0.016814 -0.018690 -0.020509 -0.022266 -0.023957 -0.025578 -0.027124 -0.028590 -0.029973 -0.031267 -0.032467 -0.033570 -0.034570 -0.035463 -0.036244
0.026519 -0.100442 -0.325490 -0.487745 -0.496616 -0.480067 -0.502368 -0.514558 -0.510813 -0.507697 -0.487480 -0.446822 -0.405878 -0.365949 -0.326400 -0.300267 -0.280670 -0.252187 -0.214270 -0.168094 -0.128056 -0.105112 -0.077705 -0.048933 -0.050702 -0.071588 -0.091306 -0.117977 -0.137318 -0.136203 -0.140390 -0.151807 -0.142265 -0.122964 -0.124360 -0.135856 -0.135229 -0.136332 -0.152932 -0.159589 -0.147267 -0.153755 -0.181402 -0.185248 -0.166779 -0.161111 -0.159668 -0.138006 -0.108588 -0.098791 -0.107799 -0.114893 -0.119235 -0.126561 -0.125543 -0.118384 -0.114300 -0.104102 -0.092107 -0.088492 -0.077870 -0.056674 -0.043566 -0.040168 -0.034812 -0.023376 -0.013962 -0.018301 -0.025582 -0.023100 -0.031693 -0.049438 -0.038642 -0.021333 -0.029343 0.021623 0.189514 0.347363 0.392548 0.421381 0.531976 0.683874 0.786731 0.734908 0.474889 0.150858 -0.023289 -0.044408 -0.059169 -0.108762 -0.129909 -0.114634 -0.113769 -0.128057 -0.115725 -0.093257 -0.099686 -0.094692 -0.048796 -0.034080 -0.077556 -0.102386 -0.087318 -0.079557 -0.081451 -0.075075 -0.069332 -0.067373 -0.062958 -0.058434 -0.055390 -0.051671 -0.047857 -0.044639 -0.041296 -0.037944 -0.034863 -0.031818 -0.028820 -0.025976 -0.023213 -0.020523 -0.017946 -0.015460 -0.013059 -0.010755 -0.008543 -0.006418 -0.004384 -0.002440 -0.000584 0.001185 0.002867 0.004463 0.005975 0.007402 0.008747 0.010010 0.011192 0.012294 0.013318 0.014264 0.015135 0.015930 0.016652 0.017302 0.017881 0.018390 0.018832 0.019207 0.019517 0.019763 0.019948 0.020072 0.020138 0.020147 0.020101 0.020002 0.019851 0.019651 0.019403 0.019109 0.018771 0.018392 0.017973 0.017516 0.017023 0.016498 0.015941 0.015355 0.014742 0.014105 0.013447 0.012768 0.012072 0.011362 0.010639 0.009907 0.009168 0.008424 0.007678 0.006933 0.006192 0.005457 0.004731 0.004018
-0.025907 -0.546606 -0.712023 -0.636231 -0.596346 -0.610429 -0.591440 -0.563548 -0.556640 -0.550382 -0.538192 -0.521805 -0.501936 -0.488837 -0.481417 -0.469470 -0.459512 -0.456338 -0.444171 -0.424382 -0.418581 -0.419401 -0.408320 -0.394943 -0.388447 -0.383976 -0.381653 -0.382015 -0.385967 -0.394348 -0.397054 -0.390929 -0.385998 -0.378194 -0.358355 -0.338219 -0.331403 -0.330899 -0.323464 -0.308892 -0.293843 -0.276912 -0.258720 -0.249970 -0.247033 -0.233702 -0.213006 -0.197065 -0.184563 -0.170688 -0.154756 -0.140475 -0.132252 -0.124128 -0.112412 -0.105843 -0.100240 -0.081622 -0.060868 -0.055106 -0.051955 -0.038866 -0.027997 -0.022713 -0.012596 -0.001148 0.006814 0.015211 0.023450 0.039164 0.068866 0.099832 0.146714 0.230658 0.293507 0.280132 0.236704 0.202329 0.150249 0.082828 0.050558 0.068219 0.074781 0.056084 0.098933 0.133968 0.047108 0.147766 0.613521 0.828997 0.449291 0.088690 0.104826 0.158874 0.121790 0.128656 0.141565 0.124224 0.134597 0.157376 0.161164 0.162611 0.166193 0.175717 0.187853 0.182098 0.192156 0.220895 0.157788 0.012054 -0.051556 -0.023259 -0.016091 -0.027890 -0.020540 -0.015917 -0.018963 -0.016078 -0.013308 -0.013533 -0.011962 -0.010206 -0.009596 -0.008498 -0.007288 -0.006529 -0.005677 -0.004798 -0.004113 -0.003449 -0.002804 -0.002261 -0.001765 -0.001308 -0.000920 -0.000582 -0.000288 -0.000049 0.000142 0.000289 0.000389 0.000446 0.000461 0.000435 0.000370 0.000268 0.000129 -0.000044 -0.000250 -0.000487 -0.000754 -0.001049 -0.001371 -0.001717 -0.002087 -0.002478 -0.002888 -0.003317 -0.003762 -0.004222 -0.004695 -0.005178 -0.005671 -0.006171 -0.006677 -0.007187 -0.007699 -0.008211 -0.008721 -0.009228 -0.009729 -0.010223 -0.010707 -0.011180 -0.011640 -0.012085 -0.012512 -0.012921 -0.013308 -0.013672 -0.014011 -0.014322 -0.014605 -0.014855 -0.015073 -0.015254
-0.062533 -0.154358 -0.334171 -0.563680 -0.776039 -0.926413 -0.981585 -0.969445 -0.937320 -0.888261 -0.831150 -0.788766 -0.754294 -0.721364 -0.701976 -0.692343 -0.681163 -0.671874 -0.666472 -0.658985 -0.648387 -0.636893 -0.624560 -0.612954 -0.603190 -0.590892 -0.571758 -0.548462 -0.525594 -0.502519 -0.477142 -0.450765 -0.423219 -0.392270 -0.361113 -0.333539 -0.306038 -0.276808 -0.250028 -0.227461 -0.207863 -0.189357 -0.172033 -0.160763 -0.154470 -0.144748 -0.132883 -0.124917 -0.116531 -0.103203 -0.090728 -0.084455 -0.077550 -0.060119 -0.037098 -0.022030 -0.017110 -0.011547 0.002837 0.014942 0.006198 -0.016819 -0.031773 -0.034100 -0.031439 -0.026995 -0.020370 -0.009974 0.001314 0.009389 0.018261 0.030287 0.041502 0.050632 0.058486 0.068391 0.080763 0.088302 0.096752 0.109769 0.102977 0.096199 0.169227 0.322534 0.474535 0.613779 0.764632 0.856499 0.803755 0.636704 0.431181 0.214625 0.026560 -0.068220 -0.076095 -0.051908 -0.014343 0.026603 0.057972 0.092460 0.119651 0.115810 0.119171 0.138587 0.091847 -0.011200 -0.053259 -0.031349 -0.024773 -0.030915 -0.023913 -0.019074 -0.019454 -0.015794 -0.012357 -0.011011 -0.008480 -0.005913 -0.004189 -0.002186 -0.000179 0.001458 0.003101 0.004697 0.006100 0.007431 0.008689 0.009819 0.010858 0.011815 0.012669 0.013434 0.014114 0.014704 0.015209 0.015633 0.015975 0.016237 0.016423 0.016534 0.016572 0.016539 0.016438 0.016271 0.016040 0.015747 0.015394 0.014984 0.014520 0.014003 0.013436 0.012822 0.012162 0.011460 0.010719 0.009939 0.009125 0.008279 0.007403 0.006501 0.005574 0.004626 0.003660 0.002678 0.001683 0.000678 -0.000334 -0.001350 -0.002368 -0.003383 -0.004394 -0.005397 -0.006389 -0.007367 -0.008327 -0.009268 -0.010184 -0.011074 -0.011934 -0.012760 -0.013550 -0.014299 -0.015005 -0.015665 -0.016274 -0.016829
0.000615 -0.175777 -0.309754 -0.433727 -0.541102 -0.561083 -0.508554 -0.472329 -0.468497 -0.462056 -0.450473 -0.440790 -0.431386 -0.424381 -0.416488 -0.403792 -0.386549 -0.362880 -0.339797 -0.321888 -0.294756 -0.254579 -0.214524 -0.176613 -0.139394 -0.105774 -0.071127 -0.038812 -0.026254 -0.038650 -0.068386 -0.109433 -0.150309 -0.177109 -0.188221 -0.190877 -0.190363 -0.186511 -0.178313 -0.168819 -0.158790 -0.145641 -0.131687 -0.118494 -0.103110 -0.089115 -0.082140 -0.077428 -0.069554 -0.062409 -0.059255 -0.054601 -0.043037 -0.031256 -0.028549 -0.029212 -0.025407 -0.020581 -0.012361 0.004633 0.021018 0.031201 0.043701 0.056707 0.059812 0.055848 0.050246 0.038474 0.023841 0.018812 0.019616 0.014396 0.010184 0.014442 0.016559 0.011461 0.005371 0.004561 0.015387 0.030495 0.034517 0.033590 0.039444 0.046772 0.054642 0.068483 0.096424 0.181505 0.341801 0.457711 0.416630 0.362834 0.506546 0.730414 0.757696 0.602817 0.450596 0.298174 0.097790 -0.033421 -0.020088 0.036830 0.047879 0.037943 0.042894 0.051921 0.054007 0.054034 0.058690 0.078764 0.094923 0.083968 0.102519 0.147346 0.071795 -0.106648 -0.181648 -0.145442 -0.136157 -0.148872 -0.138193 -0.131253 -0.133273 -0.127951 -0.122884 -0.121306 -0.117445 -0.113362 -0.110589 -0.107148 -0.103539 -0.100418 -0.097126 -0.093760 -0.090584 -0.087385 -0.084170 -0.081040 -0.077930 -0.074833 -0.071788 -0.068775 -0.065789 -0.062844 -0.059937 -0.057064 -0.054232 -0.051439 -0.048686 -0.045974 -0.043304 -0.040677 -0.038094 -0.035556 -0.033064 -0.030618 -0.028220 -0.025871 -0.023571 -0.021322 -0.019124 -0.016979 -0.014887 -0.012849 -0.010867 -0.008941 -0.007073 -0.005263 -0.003513 -0.001823 -0.000194 0.001372 0.002875 0.004312 0.005685 0.006991 0.008228 0.009398 0.010497 0.011525 0.012482 0.013365 0.014174 0.014908 0.015566 0.016146
-0.027704 -0.065823 -0.376959 -0.756434 -0.863441 -0.786721 -0.801559 -0.876051 -0.870999 -0.836212 -0.833098 -0.821887 -0.794212 -0.780964 -0.776073 -0.762088 -0.742292 -0.725085 -0.714444 -0.703042 -0.682247 -0.662779 -0.650881 -0.630961 -0.602137 -0.581768 -0.568958 -0.552724 -0.533674 -0.512540 -0.487086 -0.459737 -0.432922 -0.410624 -0.398469 -0.390859 -0.377323 -0.362120 -0.353586 -0.344564 -0.329007 -0.318306 -0.316620 -0.309050 -0.292739 -0.284715 -0.287605 -0.282066 -0.263971 -0.254822 -0.258901 -0.250621 -0.224339 -0.207130 -0.205192 -0.194407 -0.172000 -0.158501 -0.153114 -0.138046 -0.113811 -0.095742 -0.086132 -0.071212 -0.043105 -0.009292 0.020515 0.047350 0.074671 0.087047 0.072313 0.060874 0.071921 0.065247 0.027009 0.004596 0.012331 0.015929 0.007944 0.016222 0.037379 0.015097 -0.054906 -0.041125 0.183125 0.537808 0.817701 0.956386 0.980927 0.791412 0.396530 0.127108 0.140165 0.178486 0.106022 0.058658 0.070347 0.072778 0.071199 0.079483 0.085895 0.090299 0.088943 0.090075 0.101782 0.092162 0.055646 0.039105 0.048666 0.052042 0.049697 0.052887 0.055153 0.055040 0.056571 0.057955 0.058345 0.059162 0.059927 0.060250 0.060618 0.060919 0.060990 0.060993 0.060912 0.060682 0.060358 0.059941 0.059410 0.058784 0.058066 0.057250 0.056345 0.055354 0.054277 0.053118 0.051880 0.050566 0.049180 0.047723 0.046200 0.044613 0.042965 0.041260 0.039501 0.037691 0.035833 0.033932 0.031989 0.030009 0.027995 0.025950 0.023878 0.021783 0.019668 0.017537 0.015394 0.013241 0.011083 0.008924 0.006767 0.004616 0.002476 0.000349 -0.001759 -0.003846 -0.005907 -0.007938 -0.009935 -0.011894 -0.013811 -0.015681 -0.017501 -0.019266 -0.020972 -0.022615 -0.024190 -0.025693 -0.027120 -0.028466 -0.029726 -0.030897 -0.031973 -0.032951 -0.033825 -0.034591
-0.022593 -0.235794 -0.645027 -0.934326 -0.923407 -0.866895 -0.896391 -0.910669 -0.886494 -0.867033 -0.855711 -0.845605 -0.829302 -0.804625 -0.786359 -0.775906 -0.757182 -0.731857 -0.716520 -0.706753 -0.681809 -0.646727 -0.627727 -0.622707 -0.604845 -0.574668 -0.557435 -0.552785 -0.537224 -0.510331 -0.491162 -0.475457 -0.443114 -0.405681 -0.392942 -0.395028 -0.382017 -0.362399 -0.356878 -0.353144 -0.335683 -0.315097 -0.302122 -0.290473 -0.274823 -0.259531 -0.248398 -0.239482 -0.227124 -0.209325 -0.194904 -0.188640 -0.178764 -0.162570 -0.151716 -0.137130 -0.103332 -0.064050 -0.035059 -0.014388 -0.000151 0.009330 0.006088 -0.022850 -0.053072 -0.055274 -0.052238 -0.061635 -0.058744 -0.040080 -0.034513 -0.047152 -0.000606 0.255511 0.695709 0.938047 0.690819 0.235471 0.015684 0.033393 0.052249 0.022197 0.010509 0.019326 0.022533 0.022118 0.026284 0.033711 0.043460 0.053450 0.053887 0.045267 0.043055 0.049578 0.054266 0.056716 0.060807 0.064601 0.067418 0.070615 0.073683 0.076278 0.078870 0.081334 0.083522 0.085592 0.087520 0.089248 0.090828 0.092259 0.093521 0.094631 0.095592 0.096399 0.097058 0.097572 0.097941 0.098169 0.098258 0.098210 0.098028 0.097714 0.097272 0.096704 0.096012 0.095200 0.094269 0.093224 0.092068 0.090802 0.089431 0.087956 0.086383 0.084713 0.082950 0.081097 0.079158 0.077136 0.075035 0.072858 0.070608 0.068290 0.065906 0.063461 0.060959 0.058402 0.055795 0.053143 0.050448 0.047715 0.044947 0.042150 0.039326 0.036481 0.033618 0.030742 0.027856 0.024966 0.022076 0.019189 0.016311 0.013446 0.010599 0.007774 0.004976 0.002209 -0.000521 -0.003211 -0.005854 -0.008447 -0.010983 -0.013460 -0.015871 -0.018211 -0.020475 -0.022659 -0.024756 -0.026763 -0.028673 -0.030481 -0.032182 -0.033771 -0.035242 -0.036589 -0.037808 -0.038892
-0.076218 -0.034241 -0.409267 -0.817731 -0.921528 -0.914141 -0.931805 -0.925475 -0.879414 -0.760859 -0.589307 -0.481359 -0.458271 -0.443104 -0.417602 -0.405499 -0.402020 -0.394496 -0.387658 -0.389553 -0.393939 -0.393860 -0.398750 -0.410039 -0.411682 -0.405037 -0.405605 -0.408840 -0.401465 -0.384969 -0.367897 -0.353312 -0.334662 -0.304285 -0.267479 -0.237248 -0.218383 -0.200375 -0.174274 -0.152982 -0.142096 -0.125943 -0.112677 -0.117135 -0.113558 -0.086119 -0.069074 -0.083476 -0.093966 -0.073628 -0.056165 -0.056669 -0.039860 -0.023338 -0.043692 -0.052669 -0.018940 0.008180 0.008391 0.003245 0.005822 0.023159 0.038240 0.036639 0.043048 0.059650 0.064845 0.074352 0.095814 0.111271 0.135698 0.169028 0.174013 0.171733 0.190004 0.184973 0.168823 0.194355 0.199174 0.143754 0.124666 0.161343 0.164697 0.139548 0.149607 0.182160 0.190924 0.169985 0.165019 0.198005 0.197881 0.177766 0.283889 0.452735 0.508300 0.581807 0.729881 0.614344 0.197683 -0.095558 -0.139187 -0.145961 -0.177493 -0.181593 -0.134164 -0.008973 0.146656 0.236078 0.251259 0.253140 0.279466 0.295295 0.267472 0.283560 0.336290 0.203589 -0.083154 -0.204148 -0.148891 -0.135011 -0.156409 -0.141236 -0.131537 -0.136122 -0.129300 -0.122746 -0.121747 -0.117229 -0.112330 -0.109520 -0.105699 -0.101614 -0.098314 -0.094770 -0.091119 -0.087778 -0.084416 -0.081039 -0.077805 -0.074612 -0.071446 -0.068367 -0.065344 -0.062368 -0.059459 -0.056609 -0.053813 -0.051079 -0.048405 -0.045788 -0.043231 -0.040733 -0.038294 -0.035914 -0.033594 -0.031333 -0.029131 -0.026989 -0.024906 -0.022883 -0.020919 -0.019015 -0.017171 -0.015386 -0.013661 -0.011996 -0.010390 -0.008844 -0.007358 -0.005932 -0.004565 -0.003259 -0.002012 -0.000825 0.000302 0.001370 0.002377 0.003325 0.004213 0.005041 0.005810 0.006518 0.007167 0.007756 0.008286 0.008756
-0.016481 -0.106213 -0.594305 -0.897357 -0.710763 -0.546534 -0.602579 -0.622666 -0.580912 -0.575215 -0.569818 -0.550174 -0.545216 -0.539840 -0.524060 -0.513370 -0.506494 -0.493674 -0.478390 -0.467171 -0.459508 -0.450010 -0.435802 -0.422797 -0.415137 -0.404645 -0.387365 -0.373981 -0.368033 -0.357141 -0.337235 -0.320137 -0.308836 -0.291656 -0.268503 -0.253631 -0.246186 -0.230744 -0.209139 -0.196746 -0.191231 -0.179623 -0.167149 -0.168482 -0.181102 -0.190813 -0.194668 -0.200137 -0.207101 -0.207242 -0.199776 -0.193788 -0.192720 -0.188103 -0.176113 -0.166037 -0.160516 -0.149111 -0.131126 -0.118177 -0.111554 -0.101634 -0.087764 -0.079002 -0.076194 -0.069991 -0.058430 -0.051122 -0.051110 -0.047614 -0.036067 -0.028237 -0.029584 -0.027559 -0.015601 -0.005834 -0.005523 -0.003141 0.007977 0.015908 0.017399 0.027772 0.047978 0.061559 0.069752 0.085503 0.101249 0.103118 0.099238 0.103996 0.111721 0.106752 0.090998 0.082281 0.086083 0.090993 0.091289 0.093156 0.100095 0.104591 0.102876 0.109042 0.124644 0.128809 0.134394 0.158147 0.190034 0.346190 0.708725 0.884630 0.487913 -0.028757 -0.054613 0.182462 0.235419 0.179584 0.184597 0.200962 0.197742 0.200654 0.204721 0.205261 0.208030 0.218154 0.221913 0.206343 0.221894 0.258760 0.175707 -0.007347 -0.086292 -0.052557 -0.044740 -0.059798 -0.051580 -0.046680 -0.051010 -0.048107 -0.045319 -0.046116 -0.044693 -0.043013 -0.042680 -0.041715 -0.040579 -0.039948 -0.039166 -0.038313 -0.037658 -0.036988 -0.036303 -0.035705 -0.035126 -0.034555 -0.034031 -0.033530 -0.033047 -0.032592 -0.032160 -0.031745 -0.031350 -0.030973 -0.030611 -0.030263 -0.029929 -0.029606 -0.029293 -0.028988 -0.028690 -0.028398 -0.028110 -0.027824 -0.027538 -0.027252 -0.026964 -0.026672 -0.026375 -0.026071 -0.025758 -0.025436 -0.025102 -0.024755 -0.024393 -0.024015 -0.023619 -0.023204
0.015020 -0.059217 -0.507853 -0.937964 -0.898879 -0.627300 -0.516697 -0.538557 -0.533373 -0.502659 -0.478462 -0.452886 -0.430434 -0.413336 -0.391147 -0.365433 -0.342650 -0.319797 -0.295051 -0.271798 -0.247479 -0.218224 -0.191290 -0.173868 -0.159895 -0.142770 -0.129836 -0.131353 -0.139115 -0.136140 -0.128235 -0.133223 -0.145458 -0.150959 -0.157411 -0.172884 -0.185477 -0.187256 -0.185074 -0.182314 -0.176844 -0.168721 -0.158769 -0.150261 -0.145498 -0.138949 -0.129175 -0.124624 -0.124850 -0.119452 -0.109097 -0.103258 -0.101378 -0.095645 -0.087135 -0.082934 -0.079325 -0.064828 -0.040483 -0.020692 -0.010858 0.001512 0.023520 0.041256 0.044536 0.041565 0.035905 0.024290 0.015191 0.016609 0.021967 0.025355 0.030293 0.040145 0.052358 0.062273 0.072147 0.089245 0.109706 0.128747 0.169670 0.269779 0.439980 0.608340 0.583971 0.262665 -0.099478 -0.153096 0.043827 0.184940 0.197435 0.200556 0.218767 0.219617 0.234533 0.254468 0.236804 0.267572 0.343665 0.222449 -0.074471 -0.204034 -0.145106 -0.128692 -0.151118 -0.134606 -0.123375 -0.127754 -0.120066 -0.112480 -0.110948 -0.105735 -0.100070 -0.096690 -0.092281 -0.087596 -0.083783 -0.079749 -0.075620 -0.071853 -0.068098 -0.064351 -0.060787 -0.057296 -0.053862 -0.050548 -0.047321 -0.044172 -0.041121 -0.038160 -0.035283 -0.032497 -0.029799 -0.027187 -0.024663 -0.022226 -0.019873 -0.017606 -0.015424 -0.013325 -0.011310 -0.009377 -0.007526 -0.005755 -0.004065 -0.002454 -0.000921 0.000534 0.001913 0.003216 0.004445 0.005601 0.006684 0.007696 0.008639 0.009512 0.010318 0.011057 0.011731 0.012341 0.012889 0.013376 0.013803 0.014172 0.014485 0.014742 0.014945 0.015097 0.015197 0.015249 0.015254 0.015214 0.015129 0.015003 0.014836 0.014632 0.014391 0.014115 0.013807 0.013468 0.013100 0.012706 0.012288 0.011847 0.011386 0.010907
-0.016032 -0.169564 -0.586082 -0.900507 -0.886558 -0.822296 -0.849455 -0.859535 -0.839816 -0.826882 -0.806337 -0.788457 -0.784452 -0.770449 -0.744232 -0.727259 -0.716560 -0.694555 -0.668780 -0.658204 -0.650452 -0.626079 -0.602128 -0.590782 -0.571534 -0.543626 -0.526407 -0.513792 -0.494271 -0.475014 -0.462018 -0.451819 -0.432906 -0.400664 -0.378743 -0.380077 -0.372971 -0.342225 -0.321320 -0.325035 -0.325689 -0.308945 -0.290921 -0.283358 -0.278320 -0.266272 -0.252400 -0.243929 -0.234523 -0.216697 -0.194578 -0.177939 -0.169590 -0.161230 -0.150261 -0.141133 -0.126351 -0.105339 -0.094292 -0.087297 -0.065026 -0.034753 -0.010646 0.007364 0.022183 0.038605 0.051502 0.041044 0.009214 -0.014320 -0.017136 -0.016884 -0.023582 -0.021044 -0.006961 -0.008503 -0.021103 -0.001580 0.092432 0.340062 0.736165 0.961568 0.709939 0.236727 0.018476 0.056899 0.071848 0.023945 0.012786 0.027748 0.030760 0.028680 0.028072 0.037538 0.056915 0.061065 0.048157 0.043933 0.050294 0.053622 0.055314 0.059041 0.061927 0.064015 0.066670 0.069019 0.070947 0.072956 0.074791 0.076368 0.077871 0.079228 0.080399 0.081448 0.082358 0.083114 0.083737 0.084226 0.084576 0.084796 0.084887 0.084849 0.084687 0.084403 0.083999 0.083477 0.082841 0.082094 0.081237 0.080274 0.079208 0.078041 0.076777 0.075418 0.073968 0.072430 0.070806 0.069101 0.067316 0.065456 0.063524 0.061524 0.059458 0.057330 0.055143 0.052902 0.050610 0.048271 0.045887 0.043463 0.041003 0.038511 0.035990 0.033444 0.030878 0.028294 0.025698 0.023094 0.020485 0.017875 0.015270 0.012673 0.010088 0.007519 0.004972 0.002451 -0.000040 -0.002497 -0.004915 -0.007289 -0.009615 -0.011888 -0.014103 -0.016256 -0.018341 -0.020354 -0.022291 -0.024146 -0.025913 -0.027589 -0.029169 -0.030646 -0.032016 -0.033274 -0.034415 -0.035433
-0.025621 -0.060688 -0.393012 -0.769865 -0.846170 -0.766911 -0.802655 -0.877913 -0.857998 -0.813257 -0.807067 -0.799081 -0.770513 -0.744928 -0.734091 -0.728229 -0.712266 -0.688744 -0.676239 -0.672178 -0.652909 -0.623456 -0.611017 -0.605863 -0.579229 -0.545276 -0.532886 -0.526804 -0.498829 -0.462237 -0.444959 -0.439274 -0.422327 -0.398520 -0.383267 -0.374126 -0.361517 -0.344924 -0.333166 -0.329723 -0.320585 -0.301637 -0.293405 -0.295912 -0.284687 -0.265704 -0.263140 -0.268485 -0.261424 -0.246295 -0.236516 -0.232290 -0.221880 -0.202443 -0.189710 -0.183667 -0.163469 -0.138510 -0.132849 -0.127250 -0.097853 -0.066087 -0.046884 -0.019858 0.019342 0.050834 0.061463 0.051847 0.043707 0.050556 0.044122 0.014316 -0.004002 -0.002802 -0.003542 -0.005651 0.002800 0.020061 0.019984 -0.026566 -0.075014 -0.013805 0.206812 0.507985 0.759700 0.909504 0.946330 0.766408 0.381503 0.106225 0.103529 0.137693 0.076083 0.044914 0.062271 0.054847 0.053336 0.078806 0.081940 0.066769 0.079088 0.099834 0.080887 0.041285 0.029206 0.038445 0.041204 0.040638 0.044252 0.046613 0.047455 0.049549 0.051309 0.052374 0.053755 0.054995 0.055890 0.056798 0.057596 0.058191 0.058707 0.059116 0.059379 0.059539 0.059593 0.059527 0.059356 0.059083 0.058704 0.058226 0.057651 0.056980 0.056216 0.055364 0.054424 0.053401 0.052296 0.051113 0.049854 0.048523 0.047122 0.045655 0.044125 0.042535 0.040887 0.039186 0.037433 0.035634 0.033790 0.031906 0.029984 0.028029 0.026043 0.024029 0.021993 0.019936 0.017864 0.015778 0.013684 0.011585 0.009484 0.007385 0.005292 0.003210 0.001141 -0.000910 -0.002940 -0.004943 -0.006917 -0.008857 -0.010758 -0.012618 -0.014432 -0.016195 -0.017903 -0.019552 -0.021138 -0.022656 -0.024102 -0.025472 -0.026760 -0.027963 -0.029077 -0.030095 -0.031015 -0.031830
0.011681 -0.186942 -0.529853 -0.848474 -0.925828 -0.835869 -0.782287 -0.797998 -0.805269 -0.793473 -0.784141 -0.774974 -0.769377 -0.762185 -0.742525 -0.724365 -0.710443 -0.682888 -0.647366 -0.618194 -0.585275 -0.538460 -0.491262 -0.453569 -0.412699 -0.367046 -0.329302 -0.289087 -0.239551 -0.203012 -0.182063 -0.160442 -0.144741 -0.138889 -0.131701 -0.129871 -0.145376 -0.168712 -0.185687 -0.194338 -0.201706 -0.214164 -0.220412 -0.210195 -0.205275 -0.207973 -0.186655 -0.158578 -0.147886 -0.116840 -0.068299 -0.051893 -0.056700 -0.065010 -0.094392 -0.124689 -0.124880 -0.107089 -0.091551 -0.085834 -0.086851 -0.083861 -0.077430 -0.077205 -0.079965 -0.021805 0.210769 0.573416 0.793013 0.694950 0.384207 0.061223 -0.103309 -0.074453 -0.016836 -0.037437 -0.057096 -0.044772 -0.051426 -0.061196 -0.051205 -0.054656 -0.075137 -0.079630 -0.068670 -0.061962 -0.057953 -0.051030 -0.044919 -0.040013 -0.034290 -0.028812 -0.023905 -0.018841 -0.013920 -0.009309 -0.004756 -0.000337 0.003873 0.007960 0.011907 0.015683 0.019318 0.022810 0.026146 0.029337 0.032385 0.035284 0.038040 0.040653 0.043123 0.045451 0.047641 0.049691 0.051604 0.053380 0.055023 0.056532 0.057909 0.059156 0.060275 0.061267 0.062135 0.062879 0.063502 0.064005 0.064391 0.064662 0.064819 0.064866 0.064803 0.064634 0.064360 0.063984 0.063509 0.062936 0.062269 0.061510 0.060661 0.059726 0.058706 0.057605 0.056425 0.055170 0.053842 0.052445 0.050981 0.049453 0.047865 0.046220 0.044520 0.042770 0.040973 0.039132 0.037250 0.035331 0.033378 0.031396 0.029388 0.027357 0.025307 0.023242 0.021166 0.019083 0.016997 0.014911 0.012830 0.010758 0.008700 0.006658 0.004638 0.002643 0.000679 -0.001251 -0.003142 -0.004989 -0.006789 -0.008536 -0.010225 -0.011853 -0.013414 -0.014903 -0.016316 -0.017648 -0.018894 -0.020048
-0.072763 -0.071361 -0.464097 -0.871722 -0.969006 -0.960113 -0.988082 -0.982539 -0.904464 -0.751990 -0.586222 -0.509199 -0.505799 -0.488810 -0.450391 -0.431964 -0.436690 -0.438644 -0.428903 -0.422826 -0.429540 -0.436456 -0.433259 -0.428344 -0.430659 -0.436059 -0.435265 -0.425307 -0.415023 -0.409161 -0.395000 -0.369415 -0.347305 -0.325205 -0.288118 -0.248919 -0.227821 -0.214971 -0.193188 -0.167280 -0.149155 -0.140221 -0.133882 -0.125464 -0.119124 -0.114855 -0.103456 -0.091644 -0.093527 -0.094661 -0.077874 -0.062993 -0.069333 -0.074653 -0.055807 -0.033901 -0.033476 -0.034305 -0.016341 -0.001586 -0.002887 0.000481 0.013875 0.023168 0.027664 0.034009 0.046473 0.067398 0.087161 0.097581 0.111805 0.141790 0.174830 0.186197 0.168613 0.155876 0.181942 0.211306 0.193779 0.156485 0.141899 0.137092 0.129402 0.129959 0.135937 0.141667 0.153480 0.169461 0.175817 0.168936 0.175263 0.203013 0.194224 0.170274 0.274909 0.454531 0.514031 0.573688 0.746852 0.683239 0.246230 -0.119535 -0.191369 -0.192337 -0.225485 -0.222381 -0.156135 -0.018139 0.146921 0.246911 0.272353 0.282408 0.307300 0.316360 0.294409 0.325524 0.379269 0.229923 -0.072731 -0.198082 -0.141422 -0.127459 -0.149558 -0.134237 -0.124530 -0.129431 -0.122669 -0.116185 -0.115384 -0.110987 -0.106204 -0.103559 -0.099882 -0.095937 -0.092797 -0.089410 -0.085913 -0.082736 -0.079539 -0.076326 -0.073261 -0.070239 -0.067245 -0.064341 -0.061493 -0.058694 -0.055963 -0.053292 -0.050677 -0.048123 -0.045630 -0.043194 -0.040819 -0.038503 -0.036245 -0.034046 -0.031906 -0.029825 -0.027802 -0.025838 -0.023932 -0.022083 -0.020293 -0.018561 -0.016886 -0.015269 -0.013709 -0.012206 -0.010760 -0.009371 -0.008039 -0.006764 -0.005545 -0.004382 -0.003275 -0.002224 -0.001228 -0.000289 0.000596 0.001425 0.002200 0.002920 0.003585 0.004196 0.004752 0.005255
0.038005 -0.049829 -0.200477 -0.388321 -0.581457 -0.741649 -0.794974 -0.749350 -0.709356 -0.717321 -0.718047 -0.679163 -0.638315 -0.629632 -0.627798 -0.595799 -0.556445 -0.548727 -0.545200 -0.511448 -0.480752 -0.477024 -0.467795 -0.438244 -0.411706 -0.400902 -0.392556 -0.369371 -0.339246 -0.324343 -0.317111 -0.296071 -0.275896 -0.279615 -0.287513 -0.275193 -0.264042 -0.280475 -0.305708 -0.309296 -0.301595 -0.312624 -0.333658 -0.330132 -0.310193 -0.310628 -0.318978 -0.299320 -0.271364 -0.271413 -0.283884 -0.279207 -0.264058 -0.259622 -0.261207 -0.246040 -0.223929 -0.226811 -0.238679 -0.224951 -0.208046 -0.213815 -0.211511 -0.182906 -0.161468 -0.166056 -0.170021 -0.149659 -0.122675 -0.118001 -0.121808 -0.102152 -0.077244 -0.081732 -0.092716 -0.077929 -0.061415 -0.066498 -0.068257 -0.048661 -0.030410 -0.032860 -0.039540 -0.028616 -0.011718 -0.013294 -0.023514 -0.013846 0.008591 0.013474 0.004297 0.009652 0.027314 0.029124 0.019219 0.029100 0.051109 0.051015 0.041450 0.055333 0.071886 0.057055 0.039427 0.064808 0.109269 0.117965 0.102245 0.108130 0.123492 0.114467 0.104763 0.123235 0.132538 0.099896 0.069898 0.080225 0.088744 0.067955 0.064094 0.088133 0.101052 0.155922 0.344341 0.608271 0.810418 0.897914 0.882001 0.777189 0.580507 0.319252 0.127688 0.098747 0.122009 0.086585 0.057563 0.093755 0.126948 0.112483 0.106856 0.137812 0.148094 0.119862 0.106876 0.115774 0.111592 0.108533 0.118384 0.116116 0.117039 0.125708 0.079685 -0.007720 -0.042654 -0.029000 -0.029461 -0.038236 -0.036405 -0.037029 -0.041191 -0.041916 -0.043011 -0.045500 -0.046859 -0.048173 -0.049986 -0.051415 -0.052742 -0.054215 -0.055529 -0.056749 -0.057974 -0.059102 -0.060140 -0.061126 -0.062024 -0.062829 -0.063554 -0.064186 -0.064717 -0.065150 -0.065478 -0.065697 -0.065803 -0.065793 -0.065661 -0.065403
-0.035230 -0.129527 -0.463694 -0.799220 -0.903672 -0.899095 -0.911526 -0.914109 -0.901552 -0.894168 -0.878224 -0.850057 -0.828000 -0.819195 -0.810794 -0.791848 -0.774254 -0.767206 -0.754097 -0.729508 -0.712404 -0.704257 -0.691643 -0.678741 -0.669153 -0.652340 -0.628680 -0.606397 -0.581485 -0.548064 -0.510025 -0.473301 -0.440986 -0.415435 -0.398005 -0.386366 -0.374326 -0.359905 -0.347762 -0.337883 -0.327606 -0.320048 -0.314454 -0.305805 -0.295275 -0.283636 -0.267536 -0.247920 -0.226508 -0.201925 -0.180881 -0.171999 -0.166129 -0.154371 -0.146955 -0.146459 -0.141223 -0.131596 -0.125831 -0.123008 -0.117358 -0.106914 -0.094443 -0.082902 -0.074737 -0.072504 -0.069838 -0.055623 -0.033564 -0.014600 -0.000474 0.007351 0.009473 0.013269 0.016267 0.015438 0.020819 0.031015 0.033528 0.031883 0.036313 0.046120 0.056986 0.066158 0.070729 0.073010 0.081674 0.096005 0.098026 0.083025 0.078221 0.095803 0.111870 0.117359 0.121345 0.119331 0.115404 0.120223 0.122746 0.118173 0.121075 0.132336 0.139005 0.140002 0.144532 0.151504 0.155078 0.163828 0.180373 0.184636 0.172306 0.166443 0.165717 0.155101 0.184420 0.324248 0.543966 0.755359 0.906121 0.915526 0.701736 0.378875 0.173624 0.119838 0.097364 0.072633 0.074306 0.081773 0.073998 0.064897 0.054735 0.035417 0.021121 0.018477 0.013783 0.006301 0.004827 0.005522 0.003779 0.002468 0.001919 0.000592 -0.000718 -0.001746 -0.003045 -0.004388 -0.005642 -0.006995 -0.008388 -0.009759 -0.011169 -0.012604 -0.014036 -0.015484 -0.016942 -0.018398 -0.019856 -0.021312 -0.022761 -0.024200 -0.025627 -0.027037 -0.028428 -0.029797 -0.031140 -0.032453 -0.033734 -0.034979 -0.036185 -0.037348 -0.038465 -0.039532 -0.040547 -0.041505 -0.042403 -0.043238 -0.044006 -0.044704 -0.045328 -0.045874 -0.046340 -0.046721 -0.047014 -0.047216 -0.047322 -0.047329
0.049480 -0.278822 -0.714007 -0.912551 -0.850567 -0.844459 -0.887964 -0.868021 -0.843005 -0.811323 -0.720399 -0.615174 -0.550956 -0.514055 -0.485447 -0.470514 -0.454724 -0.422414 -0.396178 -0.383225 -0.356306 -0.317830 -0.288468 -0.259299 -0.224366 -0.196354 -0.169538 -0.133201 -0.099806 -0.079273 -0.069309 -0.078605 -0.110769 -0.146380 -0.178067 -0.215486 -0.247329 -0.260869 -0.269718 -0.278968 -0.278738 -0.274560 -0.271976 -0.260998 -0.243498 -0.233798 -0.228689 -0.217581 -0.204929 -0.193968 -0.181194 -0.170514 -0.160896 -0.145060 -0.131032 -0.125814 -0.118176 -0.108884 -0.109645 -0.103249 -0.070383 -0.035189 -0.014854 0.017162 0.061899 0.085568 0.091991 0.091684 0.058018 0.005044 -0.014415 -0.011898 -0.021595 -0.024289 -0.016410 -0.017950 -0.007936 0.014493 0.024043 0.044164 0.077008 0.165844 0.462059 0.780243 0.626062 0.122521 -0.109822 -0.045594 -0.055001 -0.112368 -0.082841 -0.062881 -0.071270 -0.003376 0.104474 0.154066 0.197407 0.257579 0.187051 0.000327 -0.080328 -0.041335 -0.030609 -0.044275 -0.032852 -0.025272 -0.027622 -0.022192 -0.017028 -0.015774 -0.012175 -0.008394 -0.006131 -0.003249 -0.000263 0.002106 0.004567 0.007028 0.009201 0.011316 0.013370 0.015255 0.017043 0.018744 0.020318 0.021789 0.023164 0.024429 0.025593 0.026660 0.027626 0.028495 0.029269 0.029949 0.030536 0.031033 0.031442 0.031763 0.031999 0.032152 0.032223 0.032215 0.032130 0.031969 0.031736 0.031431 0.031058 0.030618 0.030113 0.029547 0.028921 0.028238 0.027501 0.026711 0.025871 0.024985 0.024054 0.023081 0.022069 0.021021 0.019939 0.018827 0.017687 0.016523 0.015336 0.014131 0.012910 0.011676 0.010433 0.009184 0.007931 0.006679 0.005430 0.004188 0.002957 0.001739 0.000539 -0.000641 -0.001796 -0.002924 -0.004020 -0.005080 -0.006101 -0.007080 -0.008011 -0.008892
0.035590 -0.175677 -0.558232 -0.853719 -0.846441 -0.718755 -0.677807 -0.691807 -0.682088 -0.665067 -0.668214 -0.671802 -0.657373 -0.635981 -0.620213 -0.604555 -0.577922 -0.542374 -0.510487 -0.483090 -0.446723 -0.401884 -0.362153 -0.323964 -0.279838 -0.239752 -0.207718 -0.176211 -0.147183 -0.127083 -0.116779 -0.114537 -0.115511 -0.118427 -0.130561 -0.148429 -0.156090 -0.158614 -0.174716 -0.194921 -0.200120 -0.198888 -0.201289 -0.195772 -0.179121 -0.166672 -0.157834 -0.131488 -0.086050 -0.045073 -0.021795 -0.016910 -0.037225 -0.075749 -0.099716 -0.095743 -0.086519 -0.081870 -0.069836 -0.054956 -0.048396 -0.042104 -0.040121 -0.050229 0.022316 0.301261 0.639945 0.700553 0.430406 0.087215 -0.131395 -0.170257 -0.082315 -0.020092 -0.037008 -0.049781 -0.038892 -0.033795 -0.031933 -0.055828 -0.105505 -0.123073 -0.105646 -0.097329 -0.096172 -0.087406 -0.080135 -0.075893 -0.069332 -0.063037 -0.058010 -0.052350 -0.046767 -0.041745 -0.036630 -0.031598 -0.026859 -0.022195 -0.017640 -0.013278 -0.009040 -0.004928 -0.000975 0.002843 0.006528 0.010068 0.013469 0.016736 0.019863 0.022854 0.025709 0.028429 0.031015 0.033468 0.035789 0.037978 0.040038 0.041968 0.043771 0.045447 0.046998 0.048425 0.049730 0.050915 0.051979 0.052926 0.053757 0.054474 0.055078 0.055571 0.055955 0.056232 0.056404 0.056473 0.056441 0.056311 0.056083 0.055762 0.055348 0.054845 0.054254 0.053578 0.052820 0.051983 0.051068 0.050079 0.049018 0.047888 0.046692 0.045433 0.044113 0.042736 0.041305 0.039823 0.038293 0.036718 0.035102 0.033447 0.031757 0.030036 0.028287 0.026514 0.024719 0.022907 0.021082 0.019247 0.017406 0.015562 0.013720 0.011884 0.010057 0.008244 0.006448 0.004674 0.002926 0.001209 -0.000475 -0.002119 -0.003720 -0.005273 -0.006774 -0.008218 -0.009601 -0.010918 -0.012164 -0.013335
0.065861 -0.157043 -0.570844 -0.785005 -0.729956 -0.728487 -0.771438 -0.745417 -0.710813 -0.665293 -0.571997 -0.484378 -0.442771 -0.423750 -0.406175 -0.388517 -0.367556 -0.346344 -0.329235 -0.303633 -0.268218 -0.241863 -0.218340 -0.181328 -0.145242 -0.117968 -0.088879 -0.066863 -0.062277 -0.072651 -0.099503 -0.131270 -0.154531 -0.179578 -0.207420 -0.227160 -0.242227 -0.249605 -0.244667 -0.238063 -0.228314 -0.212298 -0.202510 -0.195790 -0.184110 -0.174093 -0.163124 -0.151133 -0.146366 -0.139176 -0.126189 -0.115752 -0.095852 -0.064192 -0.036014 -0.002749 0.036446 0.051722 0.034047 -0.002671 -0.046086 -0.072181 -0.072139 -0.073935 -0.080951 -0.068467 -0.057874 -0.062476 -0.032418 -0.000515 0.001152 0.192541 0.595697 0.673008 0.239213 -0.117898 -0.119308 -0.092927 -0.151243 -0.155066 -0.126450 -0.104764 -0.027673 0.075815 0.115911 0.144576 0.202737 0.144162 -0.040314 -0.127313 -0.086891 -0.072050 -0.085676 -0.073191 -0.063224 -0.064501 -0.057837 -0.050905 -0.048311 -0.043376 -0.038060 -0.034402 -0.030151 -0.025730 -0.021975 -0.018150 -0.014309 -0.010779 -0.007327 -0.003938 -0.000735 0.002354 0.005344 0.008192 0.010918 0.013533 0.016021 0.018390 0.020643 0.022776 0.024793 0.026695 0.028482 0.030155 0.031716 0.033166 0.034506 0.035738 0.036862 0.037881 0.038796 0.039608 0.040319 0.040930 0.041444 0.041862 0.042185 0.042416 0.042556 0.042608 0.042573 0.042454 0.042252 0.041970 0.041609 0.041173 0.040663 0.040082 0.039432 0.038715 0.037934 0.037092 0.036191 0.035234 0.034223 0.033161 0.032052 0.030897 0.029700 0.028463 0.027190 0.025884 0.024548 0.023184 0.021797 0.020388 0.018963 0.017523 0.016073 0.014615 0.013154 0.011692 0.010234 0.008783 0.007342 0.005916 0.004508 0.003122 0.001761 0.000431 -0.000866 -0.002125 -0.003342 -0.004513 -0.005634 -0.006701
0.002830 -0.024158 -0.201136 -0.383490 -0.430441 -0.428422 -0.453328 -0.460357 -0.439409 -0.429161 -0.428496 -0.417796 -0.400741 -0.388284 -0.380569 -0.371465 -0.360047 -0.349924 -0.341360 -0.333860 -0.327952 -0.322281 -0.318774 -0.320129 -0.318306 -0.306527 -0.293657 -0.282568 -0.259546 -0.223384 -0.190878 -0.166001 -0.136279 -0.102721 -0.082879 -0.076502 -0.062493 -0.040105 -0.025693 -0.006437 0.036670 0.089324 0.155899 0.237528 0.222277 0.018441 -0.239230 -0.372360 -0.402844 -0.409916 -0.367754 -0.266621 -0.179571 -0.124083 -0.048241 0.031150 0.083215 0.164046 0.265306 0.300548 0.311019 0.338853 0.322045 0.351844 0.446566 0.285429 -0.119102 -0.297459 -0.214240 -0.189790 -0.219842 -0.195495 -0.178425 -0.183245 -0.171208 -0.159288 -0.155856 -0.147290 -0.138091 -0.132100 -0.124684 -0.116889 -0.110328 -0.103471 -0.096494 -0.090039 -0.083615 -0.077219 -0.071094 -0.065090 -0.059183 -0.053462 -0.047884 -0.042433 -0.037142 -0.031996 -0.026990 -0.022134 -0.017424 -0.012858 -0.008439 -0.004165 -0.000036 0.003949 0.007788 0.011484 0.015037 0.018446 0.021714 0.024840 0.027825 0.030670 0.033376 0.035944 0.038375 0.040670 0.042830 0.044856 0.046749 0.048510 0.050142 0.051645 0.053021 0.054271 0.055397 0.056400 0.057282 0.058046 0.058692 0.059222 0.059639 0.059944 0.060140 0.060228 0.060210 0.060090 0.059868 0.059548 0.059132 0.058622 0.058020 0.057329 0.056553 0.055692 0.054751 0.053731 0.052636 0.051469 0.050232 0.048928 0.047561 0.046134 0.044649 0.043110 0.041520 0.039883 0.038201 0.036479 0.034719 0.032926 0.031103 0.029253 0.027380 0.025488 0.023581 0.021663 0.019737 0.017808 0.015879 0.013955 0.012040 0.010137 0.008252 0.006388 0.004551 0.002743 0.000971 -0.000763 -0.002452 -0.004094 -0.005681 -0.007212 -0.008679 -0.010079 -0.011406 -0.012656
0.015534 -0.205497 -0.500243 -0.741848 -0.797403 -0.751055 -0.740732 -0.760706 -0.763964 -0.763115 -0.767874 -0.765839 -0.761635 -0.761486 -0.755337 -0.741929 -0.728770 -0.711307 -0.684796 -0.653086 -0.618395 -0.579609 -0.529680 -0.467117 -0.408551 -0.361043 -0.314363 -0.271465 -0.242897 -0.225655 -0.212442 -0.205566 -0.210441 -0.217494 -0.214576 -0.213744 -0.227379 -0.241972 -0.245193 -0.244430 -0.246911 -0.244795 -0.230387 -0.212695 -0.199970 -0.186588 -0.169955 -0.154950 -0.146261 -0.143361 -0.136847 -0.125147 -0.118825 -0.115149 -0.103478 -0.089367 -0.083972 -0.083016 -0.071690 -0.052367 -0.048333 -0.058811 -0.050391 -0.021199 -0.008050 -0.009656 0.005792 0.021353 0.008749 -0.002008 0.012197 0.022039 0.018708 0.026542 0.043514 0.057252 0.064604 0.046421 0.061274 0.276045 0.652996 0.838166 0.639290 0.272960 0.006349 -0.076731 -0.019366 0.049495 0.045678 0.026777 0.038429 0.040759 0.036796 0.051897 0.037907 -0.018983 -0.046130 -0.030197 -0.022409 -0.024738 -0.018366 -0.012736 -0.011113 -0.006930 -0.002676 -0.000013 0.003334 0.006744 0.009496 0.012351 0.015184 0.017703 0.020156 0.022532 0.024719 0.026794 0.028767 0.030596 0.032307 0.033905 0.035378 0.036734 0.037978 0.039105 0.040120 0.041024 0.041820 0.042507 0.043090 0.043569 0.043946 0.044223 0.044403 0.044487 0.044477 0.044376 0.044186 0.043909 0.043547 0.043103 0.042579 0.041977 0.041300 0.040550 0.039731 0.038844 0.037892 0.036878 0.035805 0.034675 0.033492 0.032258 0.030975 0.029648 0.028279 0.026870 0.025426 0.023949 0.022443 0.020910 0.019354 0.017779 0.016187 0.014582 0.012967 0.011346 0.009723 0.008101 0.006483 0.004874 0.003277 0.001695 0.000133 -0.001406 -0.002918 -0.004398 -0.005844 -0.007250 -0.008613 -0.009930 -0.011194 -0.012404 -0.013553 -0.014639 -0.015657 -0.016601
0.020614 -0.300266 -0.779001 -0.946218 -0.743426 -0.633427 -0.656252 -0.625736 -0.598976 -0.609863 -0.592689 -0.562338 -0.551718 -0.540760 -0.517308 -0.496449 -0.481738 -0.457221 -0.421525 -0.392246 -0.371097 -0.344374 -0.312654 -0.286393 -0.265762 -0.247656 -0.235761 -0.231186 -0.233244 -0.248858 -0.274544 -0.287632 -0.285009 -0.290406 -0.303307 -0.302222 -0.294167 -0.291289 -0.278996 -0.257422 -0.244220 -0.231261 -0.208200 -0.190070 -0.181919 -0.169736 -0.153614 -0.146560 -0.145999 -0.140325 -0.134814 -0.134221 -0.124574 -0.107026 -0.100055 -0.099720 -0.091538 -0.074926 -0.051581 -0.026601 -0.011671 -0.005761 0.004619 0.014990 0.008200 0.001037 0.020312 0.039876 0.028114 0.010542 0.015169 0.032195 0.046625 0.048561 0.050847 0.071927 0.068124 0.100803 0.400415 0.792562 0.673889 0.104618 -0.173883 -0.022279 0.101087 0.098432 0.127276 0.150643 0.129955 0.138419 0.164926 0.154114 0.171120 0.228763 0.163265 -0.023198 -0.106838 -0.067422 -0.054948 -0.068583 -0.056820 -0.048269 -0.050183 -0.044297 -0.038430 -0.036641 -0.032526 -0.028138 -0.025320 -0.021899 -0.018344 -0.015422 -0.012417 -0.009404 -0.006686 -0.004032 -0.001438 0.000983 0.003301 0.005531 0.007629 0.009620 0.011510 0.013287 0.014958 0.016527 0.017990 0.019351 0.020612 0.021773 0.022836 0.023803 0.024675 0.025453 0.026141 0.026738 0.027247 0.027669 0.028008 0.028263 0.028437 0.028533 0.028552 0.028496 0.028367 0.028167 0.027899 0.027564 0.027166 0.026705 0.026185 0.025608 0.024976 0.024291 0.023557 0.022776 0.021949 0.021081 0.020172 0.019228 0.018248 0.017238 0.016199 0.015134 0.014047 0.012939 0.011815 0.010676 0.009527 0.008370 0.007208 0.006045 0.004884 0.003727 0.002579 0.001443 0.000321 -0.000782 -0.001864 -0.002920 -0.003947 -0.004942 -0.005900 -0.006819 -0.007695 -0.008523
0.019695 -0.316132 -0.797187 -0.937777 -0.743348 -0.700879 -0.761603 -0.718985 -0.693981 -0.726020 -0.723561 -0.702597 -0.694513 -0.679736 -0.649777 -0.610489 -0.578883 -0.568020 -0.565153 -0.552781 -0.521063 -0.476110 -0.441592 -0.415915 -0.381445 -0.357667 -0.361047 -0.366789 -0.368064 -0.381446 -0.395558 -0.396758 -0.392736 -0.384368 -0.372387 -0.359135 -0.336063 -0.311713 -0.299999 -0.285214 -0.264606 -0.257482 -0.243585 -0.209437 -0.167353 0.017156 0.436541 0.669403 0.300739 -0.210623 -0.255930 -0.075993 -0.076334 -0.126391 -0.097213 -0.121407 -0.200578 -0.218150 -0.191899 -0.183672 -0.179301 -0.165539 -0.156029 -0.148696 -0.138290 -0.129088 -0.120981 -0.111941 -0.103306 -0.095227 -0.086955 -0.078892 -0.071153 -0.063470 -0.055957 -0.048675 -0.041532 -0.034558 -0.027779 -0.021166 -0.014724 -0.008466 -0.002381 0.003530 0.009262 0.014817 0.020198 0.025401 0.030429 0.035281 0.039957 0.044459 0.048786 0.052940 0.056920 0.060728 0.064363 0.067828 0.071123 0.074249 0.077206 0.079997 0.082622 0.085082 0.087379 0.089513 0.091488 0.093303 0.094961 0.096463 0.097811 0.099006 0.100051 0.100946 0.101695 0.102299 0.102761 0.103081 0.103263 0.103309 0.103221 0.103001 0.102652 0.102176 0.101576 0.100854 0.100013 0.099056 0.097986 0.096804 0.095515 0.094121 0.092625 0.091030 0.089339 0.087556 0.085683 0.083725 0.081683 0.079562 0.077365 0.075095 0.072756 0.070352 0.067886 0.065362 0.062783 0.060155 0.057479 0.054760 0.052003 0.049211 0.046388 0.043538 0.040666 0.037776 0.034871 0.031957 0.029038 0.026117 0.023200 0.020291 0.017395 0.014515 0.011658 0.008827 0.006028 0.003265 0.000542 -0.002134 -0.004760 -0.007329 -0.009838 -0.012280 -0.014652 -0.016947 -0.019160 -0.021286 -0.023320 -0.025257 -0.027090 -0.028814 -0.030424 -0.031915 -0.033280 -0.034513
0.019630 -0.337239 -0.634809 -0.680018 -0.579382 -0.577065 -0.611170 -0.577705 -0.547660 -0.549171 -0.537137 -0.511494 -0.491545 -0.477312 -0.466645 -0.453481 -0.434896 -0.428068 -0.430808 -0.413942 -0.389531 -0.382063 -0.367184 -0.344760 -0.349246 -0.358332 -0.341357 -0.329665 -0.341211 -0.349365 -0.347122 -0.349836 -0.357828 -0.358598 -0.345718 -0.330356 -0.328771 -0.332632 -0.317676 -0.287172 -0.268999 -0.265015 -0.252916 -0.233360 -0.222728 -0.221140 -0.218187 -0.206616 -0.191367 -0.185245 -0.185833 -0.179021 -0.163191 -0.149665 -0.144030 -0.140097 -0.135740 -0.132172 -0.123323 -0.111071 -0.103153 -0.098969 -0.097667 -0.092127 -0.077155 -0.068994 -0.071977 -0.068571 -0.055644 -0.038395 -0.023082 -0.023093 -0.029199 -0.019694 -0.005656 -0.002406 0.004280 0.018586 0.023388 0.020623 0.025894 0.037648 0.043382 0.036520 0.028377 0.040283 0.063529 0.067240 0.058309 0.066963 0.084318 0.084527 0.077418 0.083960 0.097286 0.097933 0.083311 0.075667 0.089021 0.096412 0.082583 0.081183 0.100746 0.108306 0.102864 0.104222 0.106021 0.102419 0.103457 0.108130 0.106234 0.099635 0.100430 0.108669 0.107078 0.095202 0.096983 0.117688 0.137559 0.144100 0.145424 0.157371 0.168959 0.149216 0.107024 0.079900 0.070297 0.068934 0.080811 0.076590 0.057209 0.090122 0.099366 0.016140 0.140952 0.536921 0.597324 0.181549 -0.043994 0.080885 0.128802 0.068247 0.072559 0.081682 0.075308 0.090228 0.060083 -0.010687 -0.033343 -0.019486 -0.021320 -0.026669 -0.023300 -0.023659 -0.025943 -0.025261 -0.025541 -0.026706 -0.026872 -0.027261 -0.028021 -0.028452 -0.028920 -0.029531 -0.030033 -0.030528 -0.031070 -0.031568 -0.032048 -0.032533 -0.032990 -0.033422 -0.033838 -0.034225 -0.034581 -0.034908 -0.035200 -0.035453 -0.035667 -0.035838 -0.035962 -0.036038 -0.036062 -0.036031 -0.035942 -0.035793
-0.021625 -0.217467 -0.675954 -0.958782 -0.873947 -0.789182 -0.801783 -0.742771 -0.662058 -0.666732 -0.696700 -0.658706 -0.562004 -0.501194 -0.511407 -0.508311 -0.463138 -0.453741 -0.481145 -0.469562 -0.426641 -0.412046 -0.415943 -0.391006 -0.346169 -0.325389 -0.327480 -0.313604 -0.269895 -0.221377 -0.193115 -0.166819 -0.113019 -0.061476 -0.046332 -0.031299 -0.001347 -0.010158 -0.059650 -0.087994 -0.090738 -0.114418 -0.161427 -0.192351 -0.192593 -0.191326 -0.206329 -0.203401 -0.169684 -0.161672 -0.191372 -0.190222 -0.151994 -0.139067 -0.147133 -0.131753 -0.107799 -0.107996 -0.121653 -0.122665 -0.105305 -0.088813 -0.089295 -0.081678 -0.043301 -0.014924 -0.022970 -0.020483 -0.001838 -0.015744 -0.027320 0.015765 0.051279 0.030932 0.016483 0.047039 0.081448 0.084824 0.073731 0.081316 0.101334 0.103866 0.101422 0.116947 0.134044 0.151030 0.163803 0.166918 0.317247 0.678374 0.796763 0.359357 -0.103193 -0.121750 -0.009052 -0.022359 0.015460 0.105676 0.100013 0.078686 0.131368 0.188480 0.221956 0.243629 0.237601 0.260126 0.304773 0.204552 -0.012375 -0.102398 -0.060336 -0.050205 -0.066023 -0.054420 -0.047282 -0.050743 -0.045657 -0.040936 -0.040385 -0.037222 -0.033861 -0.032104 -0.029626 -0.027011 -0.025027 -0.022902 -0.020744 -0.018862 -0.017005 -0.015179 -0.013500 -0.011891 -0.010340 -0.008890 -0.007517 -0.006214 -0.004993 -0.003849 -0.002775 -0.001775 -0.000848 0.000011 0.000801 0.001523 0.002180 0.002772 0.003302 0.003771 0.004181 0.004532 0.004828 0.005069 0.005257 0.005394 0.005481 0.005521 0.005516 0.005466 0.005375 0.005243 0.005073 0.004867 0.004627 0.004354 0.004052 0.003721 0.003364 0.002983 0.002581 0.002159 0.001720 0.001265 0.000798 0.000320 -0.000166 -0.000658 -0.001154 -0.001650 -0.002146 -0.002637 -0.003122 -0.003599 -0.004064 -0.004515 -0.004950 -0.005365
-0.010846 -0.031419 -0.398389 -0.818142 -0.915832 -0.808718 -0.746135 -0.734052 -0.709017 -0.689835 -0.687520 -0.680055 -0.668349 -0.661826 -0.650964 -0.634033 -0.623562 -0.615246 -0.596146 -0.571840 -0.551516 -0.533531 -0.515665 -0.494680 -0.466983 -0.436695 -0.407601 -0.377617 -0.346655 -0.315581 -0.283124 -0.250719 -0.224464 -0.212750 -0.217651 -0.230094 -0.242574 -0.254086 -0.260692 -0.258838 -0.251284 -0.241182 -0.223141 -0.167529 -0.009177 0.290589 0.598124 0.640027 0.358923 0.046869 -0.070796 -0.081833 -0.103565 -0.118905 -0.115021 -0.112387 -0.107738 -0.097429 -0.087832 -0.078386 -0.067653 -0.054471 -0.039168 -0.029949 -0.023673 -0.002928 0.016628 0.012693 0.033694 0.084810 0.045564 -0.085794 -0.144983 -0.112310 -0.098067 -0.104191 -0.091781 -0.081222 -0.078737 -0.070673 -0.062480 -0.057445 -0.050814 -0.043979 -0.038394 -0.032457 -0.026469 -0.021024 -0.015601 -0.010237 -0.005165 -0.000219 0.004611 0.009238 0.013712 0.018045 0.022205 0.026209 0.030061 0.033753 0.037289 0.040672 0.043899 0.046972 0.049894 0.052664 0.055284 0.057754 0.060076 0.062251 0.064280 0.066165 0.067907 0.069508 0.070969 0.072291 0.073477 0.074527 0.075444 0.076230 0.076886 0.077415 0.077818 0.078097 0.078254 0.078292 0.078213 0.078019 0.077712 0.077295 0.076770 0.076139 0.075406 0.074572 0.073641 0.072615 0.071496 0.070289 0.068994 0.067617 0.066158 0.064622 0.063011 0.061329 0.059578 0.057763 0.055885 0.053949 0.051958 0.049916 0.047825 0.045690 0.043513 0.041299 0.039052 0.036774 0.034470 0.032144 0.029799 0.027440 0.025071 0.022694 0.020316 0.017939 0.015568 0.013207 0.010861 0.008533 0.006229 0.003952 0.001707 -0.000501 -0.002668 -0.004789 -0.006859 -0.008874 -0.010829 -0.012720 -0.014540 -0.016286 -0.017952 -0.019533 -0.021024 -0.022421 -0.023717 -0.024908
0.015714 -0.282434 -0.735037 -0.887463 -0.696308 -0.592344 -0.590410 -0.554068 -0.566436 -0.601874 -0.564530 -0.508906 -0.496261 -0.504624 -0.503430 -0.481359 -0.447581 -0.415278 -0.385231 -0.359928 -0.341815 -0.322516 -0.296920 -0.276806 -0.270281 -0.261798 -0.240958 -0.221440 -0.214016 -0.220499 -0.246984 -0.287778 -0.313923 -0.308255 -0.288217 -0.270903 -0.258041 -0.252310 -0.241917 -0.213386 -0.192418 -0.193769 -0.178246 -0.148620 -0.163463 -0.198660 -0.185882 -0.155181 -0.153412 -0.151979 -0.132691 -0.117416 -0.111115 -0.100119 -0.081441 -0.065818 -0.053072 -0.033016 -0.014568 -0.003720 0.007954 0.003913 -0.018091 -0.013950 0.017447 0.029123 0.019617 0.017364 0.025970 0.035854 0.043004 0.049634 0.053849 0.065318 0.093136 0.082930 0.078086 0.330821 0.758721 0.753299 0.204340 -0.172548 -0.053112 0.120057 0.108253 0.102725 0.153656 0.154447 0.134577 0.148499 0.154873 0.176588 0.226152 0.155202 -0.037793 -0.126442 -0.085698 -0.071769 -0.086146 -0.073989 -0.064674 -0.066591 -0.060406 -0.054046 -0.052030 -0.047608 -0.042827 -0.039705 -0.035962 -0.032048 -0.028795 -0.025456 -0.022094 -0.019035 -0.016040 -0.013098 -0.010332 -0.007669 -0.005093 -0.002647 -0.000311 0.001927 0.004050 0.006066 0.007980 0.009787 0.011491 0.013093 0.014595 0.015996 0.017300 0.018507 0.019618 0.020635 0.021560 0.022394 0.023139 0.023796 0.024367 0.024854 0.025258 0.025582 0.025826 0.025994 0.026086 0.026106 0.026054 0.025933 0.025746 0.025493 0.025178 0.024802 0.024368 0.023878 0.023335 0.022741 0.022097 0.021408 0.020674 0.019899 0.019086 0.018236 0.017354 0.016440 0.015498 0.014532 0.013543 0.012534 0.011509 0.010471 0.009421 0.008365 0.007303 0.006241 0.005180 0.004124 0.003076 0.002040 0.001018 0.000015 -0.000967 -0.001923 -0.002852 -0.003748 -0.004609 -0.005430
0.034850 -0.242321 -0.733886 -0.943784 -0.760654 -0.658029 -0.700699 -0.680853 -0.645079 -0.647447 -0.625901 -0.585256 -0.554075 -0.520942 -0.490370 -0.469716 -0.445216 -0.413003 -0.387303 -0.380921 -0.382003 -0.363667 -0.329798 -0.302908 -0.279675 -0.255681 -0.248608 -0.263974 -0.283921 -0.289827 -0.280710 -0.276227 -0.276108 -0.247236 -0.202327 -0.201238 -0.234893 -0.233832 -0.191952 -0.164526 -0.156798 -0.131900 -0.120374 -0.077162 0.227190 0.648296 0.555842 -0.032589 -0.320235 -0.136007 -0.017559 -0.072463 -0.046900 0.008400 -0.078708 -0.228768 -0.278250 -0.246476 -0.231925 -0.232453 -0.218557 -0.206438 -0.200381 -0.190021 -0.179677 -0.171742 -0.162584 -0.153327 -0.145046 -0.136513 -0.127980 -0.119893 -0.111848 -0.103885 -0.096179 -0.088602 -0.081152 -0.073893 -0.066789 -0.059832 -0.053047 -0.046423 -0.039956 -0.033655 -0.027518 -0.021542 -0.015730 -0.010083 -0.004599 0.000721 0.005876 0.010868 0.015695 0.020359 0.024860 0.029197 0.033372 0.037384 0.041235 0.044924 0.048453 0.051821 0.055031 0.058082 0.060977 0.063714 0.066297 0.068725 0.071000 0.073123 0.075095 0.076918 0.078594 0.080123 0.081507 0.082748 0.083847 0.084807 0.085628 0.086313 0.086864 0.087283 0.087571 0.087732 0.087766 0.087676 0.087465 0.087135 0.086687 0.086126 0.085452 0.084670 0.083780 0.082787 0.081692 0.080499 0.079211 0.077830 0.076359 0.074802 0.073161 0.071440 0.069641 0.067769 0.065826 0.063817 0.061743 0.059609 0.057418 0.055175 0.052881 0.050542 0.048162 0.045743 0.043289 0.040806 0.038296 0.035764 0.033213 0.030649 0.028075 0.025495 0.022914 0.020336 0.017765 0.015207 0.012665 0.010144 0.007650 0.005185 0.002756 0.000367 -0.001977 -0.004272 -0.006511 -0.008691 -0.010806 -0.012851 -0.014821 -0.016711 -0.018514 -0.020227 -0.021844 -0.023358 -0.024766 -0.026060
0.002701 -0.443248 -0.615487 -0.661448 -0.729640 -0.756306 -0.749754 -0.764858 -0.765934 -0.741014 -0.725020 -0.716793 -0.705170 -0.697832 -0.695524 -0.685215 -0.662531 -0.645456 -0.638792 -0.619892 -0.592662 -0.582010 -0.575347 -0.555285 -0.543301 -0.544422 -0.525984 -0.492703 -0.490003 -0.508138 -0.493666 -0.457316 -0.446894 -0.455111 -0.451262 -0.431446 -0.405247 -0.379918 -0.348676 -0.306922 -0.270481 -0.247274 -0.232677 -0.226809 -0.226888 -0.230360 -0.231587 -0.216240 -0.189594 -0.170307 -0.148853 -0.107365 -0.067938 -0.065052 -0.077761 -0.059842 -0.039644 -0.080355 -0.147558 -0.162788 -0.140208 -0.129645 -0.124738 -0.112146 -0.101910 -0.094293 -0.084311 -0.074935 -0.066749 -0.057926 -0.049337 -0.041328 -0.033256 -0.025358 -0.017802 -0.010366 -0.003109 0.003896 0.010725 0.017364 0.023785 0.030012 0.036045 0.041871 0.047500 0.052931 0.058162 0.063194 0.068030 0.072669 0.077111 0.081358 0.085410 0.089269 0.092935 0.096410 0.099694 0.102789 0.105697 0.108419 0.110955 0.113309 0.115481 0.117472 0.119286 0.120923 0.122386 0.123676 0.124796 0.125747 0.126532 0.127153 0.127613 0.127913 0.128056 0.128044 0.127881 0.127569 0.127109 0.126507 0.125763 0.124880 0.123863 0.122714 0.121435 0.120030 0.118502 0.116854 0.115090 0.113213 0.111227 0.109134 0.106938 0.104643 0.102253 0.099771 0.097200 0.094546 0.091810 0.088999 0.086114 0.083161 0.080144 0.077066 0.073931 0.070745 0.067510 0.064233 0.060916 0.057564 0.054182 0.050774 0.047345 0.043900 0.040442 0.036978 0.033511 0.030047 0.026589 0.023144 0.019717 0.016311 0.012933 0.009587 0.006279 0.003013 -0.000205 -0.003369 -0.006475 -0.009516 -0.012488 -0.015386 -0.018202 -0.020933 -0.023571 -0.026113 -0.028551 -0.030880 -0.033094 -0.035188 -0.037155 -0.038989 -0.040685 -0.042237 -0.043638 -0.044881
-0.061073 -0.125532 -0.538012 -0.913005 -0.979970 -0.978209 -1.012007 -0.985136 -0.893607 -0.746768 -0.570845 -0.474060 -0.475541 -0.472588 -0.437432 -0.426132 -0.437616 -0.432816 -0.414973 -0.410407 -0.427495 -0.439028 -0.418809 -0.405558 -0.433310 -0.448001 -0.421138 -0.408103 -0.418655 -0.408676 -0.378483 -0.349589 -0.325310 -0.303584 -0.273720 -0.241329 -0.230230 -0.225199 -0.202446 -0.188560 -0.195898 -0.189841 -0.169406 -0.166012 -0.171776 -0.164991 -0.150398 -0.134791 -0.127596 -0.135149 -0.135668 -0.119265 -0.105154 -0.094155 -0.073071 -0.050683 -0.049187 -0.063221 -0.057470 -0.037614 -0.042755 -0.046201 -0.009744 0.016700 0.002236 0.002482 0.032443 0.044880 0.034782 0.032431 0.045065 0.061223 0.070034 0.073870 0.081844 0.089374 0.092191 0.102929 0.125929 0.142108 0.145831 0.166713 0.206792 0.213009 0.185294 0.195142 0.235827 0.230648 0.189186 0.174014 0.181269 0.174300 0.154576 0.153671 0.181394 0.202095 0.191902 0.174934 0.181315 0.206718 0.207199 0.203021 0.306622 0.480074 0.581279 0.657180 0.673827 0.397518 -0.032124 -0.218272 -0.187787 -0.186125 -0.214480 -0.185958 -0.086796 0.059140 0.180949 0.228696 0.241405 0.270388 0.289413 0.266047 0.277455 0.320814 0.197757 -0.068255 -0.183872 -0.133108 -0.118989 -0.139529 -0.125892 -0.116551 -0.121074 -0.115020 -0.108915 -0.108155 -0.104160 -0.099704 -0.097243 -0.093864 -0.090202 -0.087286 -0.084154 -0.080908 -0.077956 -0.074990 -0.072005 -0.069155 -0.066344 -0.063558 -0.060852 -0.058199 -0.055589 -0.053041 -0.050549 -0.048106 -0.045721 -0.043390 -0.041112 -0.038889 -0.036721 -0.034607 -0.032548 -0.030543 -0.028592 -0.026697 -0.024856 -0.023069 -0.021338 -0.019661 -0.018038 -0.016471 -0.014959 -0.013501 -0.012099 -0.010752 -0.009460 -0.008223 -0.007042 -0.005916 -0.004846 -0.003831 -0.002873 -0.001969 -0.001122 -0.000331
-0.002785 -0.211086 -0.714337 -0.994841 -0.875449 -0.803060 -0.827544 -0.751487 -0.690159 -0.717503 -0.706710 -0.638684 -0.583506 -0.551391 -0.527779 -0.508106 -0.494690 -0.483727 -0.460368 -0.436369 -0.436031 -0.440983 -0.420921 -0.389092 -0.369046 -0.344937 -0.301180 -0.269964 -0.269818 -0.251289 -0.182875 -0.118491 -0.099570 -0.082968 -0.039047 -0.014203 -0.037747 -0.064968 -0.064548 -0.083046 -0.148977 -0.198916 -0.193070 -0.183943 -0.203525 -0.218493 -0.208341 -0.192868 -0.194502 -0.200693 -0.181084 -0.149583 -0.146268 -0.159559 -0.148398 -0.122743 -0.126251 -0.149596 -0.138093 -0.096404 -0.080585 -0.078657 -0.041950 -0.002910 -0.011620 -0.039206 -0.046218 -0.034117 -0.009765 0.012383 0.016582 0.012697 0.013325 0.023887 0.045674 0.057796 0.053454 0.062232 0.088249 0.108312 0.115592 0.104812 0.101203 0.144020 0.166860 0.180872 0.431934 0.816643 0.732830 0.164834 -0.160573 -0.057625 0.014127 -0.034103 0.011986 0.093126 0.086965 0.061966 0.095117 0.177182 0.238695 0.226199 0.226717 0.274078 0.193328 -0.014454 -0.104302 -0.061214 -0.050408 -0.066302 -0.054033 -0.046362 -0.049603 -0.044057 -0.038900 -0.038040 -0.034502 -0.030772 -0.028701 -0.025897 -0.022962 -0.020688 -0.018277 -0.015843 -0.013702 -0.011598 -0.009535 -0.007633 -0.005813 -0.004064 -0.002428 -0.000882 0.000583 0.001952 0.003233 0.004432 0.005544 0.006572 0.007520 0.008386 0.009173 0.009884 0.010519 0.011079 0.011568 0.011986 0.012335 0.012617 0.012833 0.012987 0.013079 0.013111 0.013086 0.013005 0.012871 0.012686 0.012451 0.012169 0.011841 0.011471 0.011061 0.010612 0.010127 0.009609 0.009059 0.008480 0.007875 0.007246 0.006596 0.005927 0.005242 0.004543 0.003833 0.003115 0.002391 0.001665 0.000939 0.000215 -0.000503 -0.001212 -0.001910 -0.002593 -0.003259 -0.003904 -0.004525 -0.005120
-0.004603 -0.130193 -0.616353 -0.914791 -0.797491 -0.723475 -0.766851 -0.710236 -0.655577 -0.697460 -0.700903 -0.623409 -0.550492 -0.504085 -0.468080 -0.451472 -0.449369 -0.443864 -0.430878 -0.414728 -0.404793 -0.396991 -0.369071 -0.331452 -0.319093 -0.315793 -0.280732 -0.230101 -0.197934 -0.168085 -0.120808 -0.077866 -0.052444 -0.022455 0.018892 0.040780 0.025236 -0.001481 -0.014464 -0.029688 -0.067944 -0.113073 -0.139538 -0.156719 -0.183425 -0.201411 -0.188896 -0.171401 -0.180818 -0.194436 -0.175815 -0.148583 -0.149476 -0.149071 -0.119652 -0.102193 -0.119042 -0.130066 -0.114935 -0.101181 -0.105947 -0.107176 -0.083135 -0.050928 -0.033948 -0.023683 -0.010160 -0.004405 -0.011112 -0.017818 -0.008570 0.016680 0.031257 0.023871 0.024459 0.042454 0.051901 0.055976 0.072474 0.081894 0.071753 0.075439 0.102693 0.114877 0.118901 0.144017 0.171071 0.295719 0.623545 0.814310 0.475284 -0.038299 -0.176522 -0.068369 -0.026283 -0.002280 0.043091 0.031729 0.020457 0.084496 0.178178 0.229720 0.221478 0.222685 0.248517 0.162149 -0.026295 -0.107741 -0.069834 -0.058943 -0.072885 -0.062040 -0.054583 -0.057139 -0.052034 -0.047028 -0.045927 -0.042514 -0.038847 -0.036676 -0.033884 -0.030950 -0.028607 -0.026155 -0.023677 -0.021461 -0.019283 -0.017142 -0.015146 -0.013226 -0.011370 -0.009618 -0.007949 -0.006353 -0.004846 -0.003420 -0.002070 -0.000800 0.000392 0.001509 0.002551 0.003520 0.004416 0.005242 0.005998 0.006686 0.007308 0.007864 0.008357 0.008788 0.009159 0.009470 0.009725 0.009923 0.010068 0.010161 0.010203 0.010197 0.010144 0.010046 0.009905 0.009723 0.009501 0.009243 0.008949 0.008622 0.008264 0.007878 0.007464 0.007026 0.006565 0.006084 0.005586 0.005071 0.004544 0.004005 0.003458 0.002904 0.002347 0.001789 0.001233 0.000680 0.000133 -0.000404 -0.000930 -0.001441
-0.016701 -0.018946 -0.534533 -0.951712 -0.880300 -0.779234 -0.807368 -0.736206 -0.652552 -0.682526 -0.685432 -0.596826 -0.510052 -0.468689 -0.460709 -0.458855 -0.429543 -0.395250 -0.399546 -0.412460 -0.394078 -0.374016 -0.364695 -0.329696 -0.286157 -0.281631 -0.284276 -0.243324 -0.188691 -0.150109 -0.103697 -0.062684 -0.051662 -0.032122 0.003484 0.013964 0.011840 0.007684 -0.031229 -0.077354 -0.092906 -0.123685 -0.171265 -0.164554 -0.132058 -0.151028 -0.175914 -0.148468 -0.128639 -0.151160 -0.152863 -0.124378 -0.125534 -0.148434 -0.139392 -0.103449 -0.080022 -0.078277 -0.075591 -0.047597 -0.006045 0.007174 -0.009007 -0.009123 0.008555 0.007589 0.004258 0.026420 0.042312 0.037570 0.046411 0.065399 0.065245 0.056532 0.064407 0.089380 0.105750 0.098734 0.100487 0.121583 0.123689 0.127146 0.171249 0.237840 0.398395 0.675851 0.719591 0.293389 -0.158143 -0.200750 -0.070550 -0.056914 -0.050137 0.018742 0.045130 0.030020 0.039157 0.092398 0.180046 0.238103 0.249838 0.249776 0.155148 -0.039411 -0.134180 -0.095793 -0.079368 -0.095161 -0.084472 -0.074632 -0.077201 -0.071867 -0.065612 -0.064033 -0.060163 -0.055657 -0.052887 -0.049541 -0.045916 -0.042958 -0.039921 -0.036813 -0.033993 -0.031229 -0.028491 -0.025909 -0.023416 -0.020987 -0.018671 -0.016447 -0.014302 -0.012254 -0.010295 -0.008420 -0.006633 -0.004933 -0.003317 -0.001785 -0.000335 0.001033 0.002321 0.003530 0.004661 0.005715 0.006694 0.007599 0.008431 0.009192 0.009883 0.010506 0.011062 0.011552 0.011979 0.012344 0.012648 0.012894 0.013082 0.013214 0.013294 0.013321 0.013298 0.013228 0.013111 0.012949 0.012746 0.012502 0.012220 0.011902 0.011550 0.011167 0.010753 0.010312 0.009846 0.009357 0.008847 0.008319 0.007776 0.007218 0.006650 0.006074 0.005491 0.004906 0.004319 0.003734 0.003154 0.002581
-0.024054 -0.079567 -0.595745 -0.989731 -0.904272 -0.784411 -0.811016 -0.769528 -0.682083 -0.678238 -0.701455 -0.667409 -0.588379 -0.515085 -0.487248 -0.493558 -0.488397 -0.469902 -0.466356 -0.462772 -0.431941 -0.398802 -0.391701 -0.387539 -0.367098 -0.349510 -0.340936 -0.321344 -0.284082 -0.245794 -0.220909 -0.197123 -0.153612 -0.101797 -0.067147 -0.042261 -0.007169 0.021353 0.014247 -0.014464 -0.037881 -0.066241 -0.107357 -0.137629 -0.147342 -0.152037 -0.158473 -0.161180 -0.158858 -0.156732 -0.156249 -0.147505 -0.126271 -0.111173 -0.117523 -0.129545 -0.125654 -0.112316 -0.108345 -0.104375 -0.070029 -0.015241 0.006500 -0.011786 -0.016302 -0.001663 -0.012355 -0.021342 0.021423 0.058153 0.032594 0.008949 0.031618 0.049241 0.042303 0.051690 0.079763 0.085007 0.069442 0.069995 0.082145 0.104702 0.142932 0.159753 0.267532 0.603224 0.793277 0.414963 -0.105564 -0.184180 -0.039404 -0.023060 -0.013111 0.057778 0.059180 0.033902 0.075911 0.136450 0.182672 0.216546 0.214562 0.225209 0.256564 0.167622 -0.023671 -0.104056 -0.065802 -0.055251 -0.068631 -0.057505 -0.050060 -0.052326 -0.047005 -0.041907 -0.040624 -0.037049 -0.033276 -0.030977 -0.028067 -0.025041 -0.022608 -0.020075 -0.017531 -0.015257 -0.013030 -0.010852 -0.008828 -0.006889 -0.005024 -0.003272 -0.001612 -0.000035 0.001446 0.002837 0.004143 0.005361 0.006493 0.007543 0.008510 0.009396 0.010202 0.010931 0.011584 0.012162 0.012667 0.013101 0.013466 0.013763 0.013994 0.014161 0.014266 0.014310 0.014297 0.014227 0.014102 0.013926 0.013699 0.013424 0.013103 0.012739 0.012333 0.011888 0.011406 0.010889 0.010340 0.009761 0.009155 0.008524 0.007871 0.007197 0.006507 0.005801 0.005084 0.004357 0.003624 0.002887 0.002148 0.001411 0.000679 -0.000046 -0.000760 -0.001461 -0.002146 -0.002812 -0.003455 -0.004072
-0.008973 0.018426 -0.486125 -0.923679 -0.846204 -0.701290 -0.744132 -0.727847 -0.619163 -0.593929 -0.631840 -0.614007 -0.527660 -0.433193 -0.386801 -0.386322 -0.379679 -0.348105 -0.327300 -0.340227 -0.350064 -0.317968 -0.278641 -0.269675 -0.258531 -0.227738 -0.207943 -0.197440 -0.166898 -0.116894 -0.067050 -0.027373 0.003138 0.030904 0.056757 0.074722 0.088056 0.095520 0.073785 0.025797 -0.004121 -0.012443 -0.041345 -0.085304 -0.101153 -0.088864 -0.080188 -0.086121 -0.091979 -0.084728 -0.074749 -0.070326 -0.055217 -0.033956 -0.033979 -0.038476 -0.011943 0.024790 0.031699 0.018483 0.021527 0.042779 0.049988 0.044481 0.067113 0.104289 0.096995 0.062423 0.067450 0.101492 0.108625 0.100309 0.119698 0.141262 0.123941 0.105246 0.126110 0.155832 0.162152 0.149870 0.144615 0.175925 0.202030 0.171164 0.172632 0.226154 0.133736 -0.099874 -0.202765 -0.154260 -0.138658 -0.154810 -0.140022 -0.129073 -0.130807 -0.123022 -0.115205 -0.112305 -0.106537 -0.100392 -0.096116 -0.091069 -0.085818 -0.081301 -0.076648 -0.071948 -0.067572 -0.063243 -0.058953 -0.054844 -0.050830 -0.046897 -0.043094 -0.039398 -0.035798 -0.032312 -0.028934 -0.025659 -0.022492 -0.019431 -0.016475 -0.013624 -0.010878 -0.008235 -0.005695 -0.003259 -0.000924 0.001310 0.003443 0.005476 0.007410 0.009247 0.010987 0.012630 0.014179 0.015633 0.016995 0.018266 0.019445 0.020536 0.021539 0.022455 0.023286 0.024034 0.024699 0.025283 0.025788 0.026216 0.026568 0.026845 0.027050 0.027184 0.027249 0.027247 0.027181 0.027051 0.026859 0.026609 0.026302 0.025940 0.025525 0.025060 0.024547 0.023987 0.023385 0.022741 0.022058 0.021340 0.020588 0.019804 0.018993 0.018156 0.017296 0.016415 0.015517 0.014605 0.013681 0.012748 0.011810 0.010869 0.009928 0.008991 0.008061 0.007141 0.006233 0.005342
0.028884 -0.301581 -0.798602 -0.973286 -0.791040 -0.725224 -0.777520 -0.753933 -0.718136 -0.707386 -0.682571 -0.658601 -0.643766 -0.634234 -0.633826 -0.629654 -0.617505 -0.603610 -0.578344 -0.544465 -0.519046 -0.490286 -0.442788 -0.398494 -0.374414 -0.356763 -0.344830 -0.351617 -0.366560 -0.375380 -0.381046 -0.379505 -0.367408 -0.357477 -0.346987 -0.326801 -0.313078 -0.295775 -0.252929 -0.228098 -0.139140 0.232730 0.619130 0.403721 -0.192260 -0.374230 -0.186004 -0.155851 -0.223850 -0.185394 -0.183789 -0.258777 -0.274283 -0.243465 -0.236329 -0.231531 -0.215323 -0.205389 -0.197346 -0.185404 -0.175322 -0.166318 -0.156065 -0.146418 -0.137352 -0.127974 -0.118865 -0.110099 -0.101346 -0.092781 -0.084458 -0.076260 -0.068236 -0.060414 -0.052755 -0.045271 -0.037975 -0.030855 -0.023912 -0.017154 -0.010575 -0.004177 0.002039 0.008074 0.013927 0.019598 0.025088 0.030396 0.035522 0.040468 0.045233 0.049818 0.054223 0.058449 0.062496 0.066365 0.070058 0.073574 0.076914 0.080081 0.083074 0.085895 0.088545 0.091025 0.093337 0.095482 0.097462 0.099277 0.100930 0.102423 0.103756 0.104932 0.105953 0.106821 0.107537 0.108103 0.108523 0.108797 0.108929 0.108920 0.108773 0.108491 0.108075 0.107529 0.106854 0.106055 0.105132 0.104090 0.102931 0.101658 0.100274 0.098782 0.097185 0.095487 0.093689 0.091797 0.089812 0.087739 0.085581 0.083341 0.081023 0.078631 0.076168 0.073638 0.071044 0.068391 0.065682 0.062922 0.060114 0.057262 0.054371 0.051444 0.048487 0.045502 0.042495 0.039469 0.036430 0.033381 0.030328 0.027274 0.024225 0.021184 0.018158 0.015150 0.012165 0.009209 0.006286 0.003402 0.000561 -0.002232 -0.004972 -0.007653 -0.010269 -0.012817 -0.015289 -0.017682 -0.019989 -0.022206 -0.024326 -0.026343 -0.028253 -0.030049 -0.031726 -0.033278 -0.034699 -0.035983
-0.024133 -0.188119 -0.671286 -0.982124 -0.876793 -0.775202 -0.810722 -0.765132 -0.673531 -0.677424 -0.716640 -0.690766 -0.603321 -0.519946 -0.503440 -0.530596 -0.525509 -0.489928 -0.472099 -0.463516 -0.439815 -0.421293 -0.425872 -0.424023 -0.387531 -0.346885 -0.341369 -0.345795 -0.319104 -0.277046 -0.249383 -0.223194 -0.179621 -0.137680 -0.120398 -0.109001 -0.074100 -0.032571 -0.025588 -0.052813 -0.076277 -0.085813 -0.106174 -0.136148 -0.151101 -0.158299 -0.171665 -0.172496 -0.155980 -0.148069 -0.155064 -0.157443 -0.141511 -0.114531 -0.098121 -0.097568 -0.099651 -0.104088 -0.110141 -0.099545 -0.071749 -0.049866 -0.041295 -0.030599 -0.008041 0.013408 0.016856 0.008189 0.004814 0.011610 0.023939 0.037999 0.052419 0.063534 0.062080 0.052156 0.060261 0.088271 0.096076 0.082406 0.094685 0.115699 0.105500 0.119659 0.166791 0.189505 0.326082 0.634315 0.689757 0.259072 -0.147842 -0.140474 -0.011959 -0.014273 -0.007894 0.064517 0.091394 0.068813 0.070724 0.121885 0.187569 0.210850 0.215577 0.231104 0.155394 -0.012412 -0.089196 -0.054969 -0.043113 -0.056027 -0.046219 -0.038597 -0.040778 -0.036047 -0.031080 -0.029894 -0.026671 -0.023113 -0.020998 -0.018365 -0.015580 -0.013372 -0.011098 -0.008804 -0.006774 -0.004804 -0.002882 -0.001113 0.000567 0.002171 0.003663 0.005061 0.006375 0.007593 0.008720 0.009762 0.010716 0.011584 0.012370 0.013074 0.013698 0.014243 0.014712 0.015106 0.015427 0.015678 0.015858 0.015972 0.016020 0.016005 0.015929 0.015794 0.015602 0.015355 0.015055 0.014705 0.014307 0.013863 0.013375 0.012847 0.012279 0.011676 0.011038 0.010370 0.009672 0.008949 0.008202 0.007434 0.006648 0.005846 0.005032 0.004208 0.003378 0.002542 0.001706 0.000872 0.000042 -0.000780 -0.001591 -0.002389 -0.003169 -0.003930 -0.004667 -0.005377 -0.006058 -0.006705
0.003070 -0.187399 -0.698557 -1.000359 -0.871324 -0.776918 -0.821201 -0.764472 -0.676114 -0.695268 -0.718023 -0.650366 -0.550461 -0.491795 -0.482194 -0.482627 -0.471150 -0.465780 -0.460517 -0.429516 -0.400789 -0.409703 -0.417657 -0.389299 -0.365592 -0.364556 -0.337701 -0.283549 -0.257430 -0.258411 -0.231501 -0.170512 -0.126820 -0.112333 -0.081950 -0.028297 0.008018 0.017219 0.015821 -0.001179 -0.041139 -0.084500 -0.108860 -0.120629 -0.139345 -0.162147 -0.171584 -0.172920 -0.183344 -0.192598 -0.187998 -0.182400 -0.174317 -0.152008 -0.127930 -0.106141 -0.086436 -0.091734 -0.109295 -0.095074 -0.062018 -0.052035 -0.060680 -0.060644 -0.052371 -0.059656 -0.077060 -0.067577 -0.039632 -0.035368 -0.041385 -0.023949 -0.006775 -0.016446 -0.026145 -0.018867 -0.016660 -0.021467 -0.014208 0.005169 0.021405 0.014444 -0.007981 -0.000098 0.031878 0.026955 0.001287 0.018776 0.052916 0.047199 0.028297 0.037449 0.052168 0.044837 0.040684 0.064282 0.078269 0.048419 0.020664 0.044550 0.083453 0.081963 0.058966 0.061306 0.077249 0.072512 0.061670 0.072541 0.090940 0.087560 0.070387 0.075110 0.096714 0.093598 0.074520 0.079863 0.096544 0.093358 0.083397 0.089396 0.100171 0.092188 0.075294 0.076857 0.086708 0.083177 0.082332 0.098079 0.109245 0.095436 0.068672 0.066069 0.090070 0.088666 0.061552 0.068786 0.089029 0.063135 0.035228 0.054340 0.070656 0.054690 0.047654 0.056626 0.052556 0.041651 0.038048 0.034042 0.028763 0.025334 0.026235 0.035306 0.031531 0.004801 -0.001841 0.025885 0.034921 0.007780 -0.009314 0.003690 0.018480 0.016885 0.007505 -0.000401 -0.005532 -0.018489 -0.046599 -0.057934 -0.029428 -0.010349 -0.033324 -0.048279 -0.035011 -0.038091 -0.057132 -0.056621 -0.047435 -0.049731 -0.049902 -0.036729 -0.025788 -0.039326 -0.067766 -0.074432 -0.053578 -0.028940
-0.021427 -0.222250 -0.599106 -0.867099 -0.872431 -0.837142 -0.863238 -0.874346 -0.865204 -0.852859 -0.826700 -0.805698 -0.799236 -0.785197 -0.761898 -0.745858 -0.737463 -0.724527 -0.701451 -0.680301 -0.673390 -0.665481 -0.639917 -0.615670 -0.612542 -0.612025 -0.594121 -0.574728 -0.570532 -0.564372 -0.536985 -0.500005 -0.470140 -0.441033 -0.408419 -0.386731 -0.376921 -0.363231 -0.345050 -0.331644 -0.323800 -0.315016 -0.297093 -0.277038 -0.269763 -0.263370 -0.243081 -0.227815 -0.227737 -0.222387 -0.211390 -0.215348 -0.222372 -0.202604 -0.164930 -0.138432 -0.125339 -0.114800 -0.101319 -0.086426 -0.052661 0.115847 0.493531 0.793647 0.636213 0.198578 -0.027197 0.001510 0.014328 -0.023405 -0.025475 -0.022353 -0.027407 -0.012198 -0.006785 -0.025610 -0.030068 -0.016705 -0.009584 -0.005540 0.002596 0.009277 0.014482 0.020902 0.026868 0.032111 0.037620 0.042903 0.047787 0.052624 0.057278 0.061663 0.065903 0.069963 0.073807 0.077476 0.080965 0.084258 0.087372 0.090306 0.093056 0.095627 0.098022 0.100239 0.102282 0.104153 0.105852 0.107383 0.108746 0.109945 0.110980 0.111855 0.112571 0.113131 0.113537 0.113792 0.113897 0.113855 0.113670 0.113343 0.112878 0.112276 0.111542 0.110677 0.109685 0.108569 0.107331 0.105975 0.104504 0.102921 0.101229 0.099433 0.097534 0.095537 0.093444 0.091261 0.088989 0.086633 0.084196 0.081683 0.079096 0.076441 0.073720 0.070937 0.068097 0.065203 0.062261 0.059273 0.056244 0.053178 0.050080 0.046954 0.043803 0.040634 0.037449 0.034255 0.031054 0.027852 0.024654 0.021464 0.018287 0.015127 0.011990 0.008881 0.005804 0.002764 -0.000233 -0.003182 -0.006080 -0.008919 -0.011695 -0.014403 -0.017037 -0.019593 -0.022064 -0.024445 -0.026732 -0.028917 -0.030996 -0.032963 -0.034813 -0.036539 -0.038136 -0.039598 -0.040920 -0.042094
-0.023793 -0.136183 -0.600863 -0.906071 -0.795225 -0.687000 -0.708721 -0.665613 -0.598035 -0.607363 -0.633962 -0.612113 -0.540600 -0.468691 -0.458423 -0.480368 -0.462926 -0.427774 -0.424513 -0.429098 -0.412298 -0.393482 -0.390596 -0.392874 -0.375294 -0.333898 -0.306536 -0.305253 -0.281916 -0.227631 -0.192648 -0.175706 -0.135949 -0.091199 -0.075625 -0.069663 -0.053825 -0.045818 -0.060555 -0.093107 -0.125501 -0.145369 -0.167836 -0.198908 -0.210492 -0.200365 -0.204534 -0.224945 -0.227166 -0.208575 -0.198900 -0.204540 -0.204338 -0.190082 -0.176351 -0.176884 -0.185512 -0.183901 -0.175296 -0.179259 -0.179900 -0.153817 -0.133418 -0.137818 -0.120815 -0.081355 -0.080708 -0.108347 -0.102669 -0.079512 -0.084764 -0.093644 -0.071927 -0.047253 -0.049920 -0.059997 -0.050561 -0.032951 -0.029489 -0.031477 -0.020226 -0.001765 0.006592 -0.002083 -0.004675 0.030494 0.065148 0.097681 0.299760 0.632237 0.622273 0.138324 -0.251274 -0.230076 -0.126129 -0.135751 -0.108871 -0.034758 -0.033949 -0.067079 -0.030078 0.052629 0.095560 0.091430 0.092486 0.110942 0.117550 0.111227 0.117834 0.135731 0.140461 0.135609 0.148287 0.175279 0.185598 0.180781 0.195449 0.231916 0.259030 0.276036 0.309719 0.356887 0.388927 0.402183 0.419030 0.442123 0.443246 0.410561 0.371980 0.347502 0.321448 0.284600 0.257437 0.252828 0.247377 0.227621 0.228312 0.240803 0.215067 0.216156 0.263914 0.165910 -0.078815 -0.190649 -0.143254 -0.129894 -0.150593 -0.138337 -0.129847 -0.134881 -0.129714 -0.124340 -0.124136 -0.120797 -0.116932 -0.114967 -0.112090 -0.108889 -0.106372 -0.103614 -0.100706 -0.098046 -0.095338 -0.092575 -0.089907 -0.087244 -0.084571 -0.081943 -0.079333 -0.076734 -0.074163 -0.071616 -0.069088 -0.066585 -0.064109 -0.061656 -0.059230 -0.056833 -0.054463 -0.052122 -0.049812 -0.047533 -0.045286 -0.043073 -0.040895 -0.038752
0.186609 0.227853 0.272438 0.308287 0.363884 0.451462 0.513656 0.530578 0.553345 0.594121 0.614096 0.616941 0.639514 0.672693 0.687790 0.698116 0.728417 0.775900 0.828921 0.882883 0.932187 0.968929 0.991750 1.003272 0.999521 0.976372 0.937057 0.879636 0.801576 0.725006 0.674803 0.628184 0.557618 0.517183 0.556529 0.590663 0.536541 0.444073 0.339931 0.191502 0.049376 -0.028432 -0.061171 -0.061548 -0.052963 -0.039636 0.072181 0.227621 0.173099 -0.058112 -0.163162 -0.124067 -0.120240 -0.143986 -0.137485 -0.135959 -0.145584 -0.145598 -0.145898 -0.150465 -0.151926 -0.152986 -0.155555 -0.157100 -0.158287 -0.159939 -0.161212 -0.162237 -0.163347 -0.164270 -0.165018 -0.165718 -0.166286 -0.166716 -0.167056 -0.167282 -0.167388 -0.167392 -0.167288 -0.167075 -0.166761 -0.166343 -0.165823 -0.165205 -0.164489 -0.163676 -0.162769 -0.161770 -0.160680 -0.159502 -0.158236 -0.156885 -0.155451 -0.153936 -0.152341 -0.150670 -0.148923 -0.147102 -0.145211 -0.143250 -0.141223 -0.139130 -0.136975 -0.134759 -0.132484 -0.130153 -0.127768 -0.125331 -0.122844 -0.120309 -0.117728 -0.115105 -0.112440 -0.109737 -0.106997 -0.104222 -0.101416 -0.098580 -0.095716 -0.092826 -0.089914 -0.086981 -0.084029 -0.081060 -0.078078 -0.075084 -0.072080 -0.069069 -0.066052 -0.063033 -0.060013 -0.056994 -0.053979 -0.050971 -0.047970 -0.044980 -0.042002 -0.039040 -0.036094 -0.033167 -0.030262 -0.027380 -0.024523 -0.021695 -0.018896 -0.016129 -0.013396 -0.010700 -0.008042 -0.005424 -0.002848 -0.000317 0.002167 0.004603 0.006989 0.009321 0.011600 0.013822 0.015985 0.018088 0.020128 0.022105 0.024015 0.025857 0.027629 0.029329 0.030955 0.032506 0.033979 0.035374 0.036687 0.037917 0.039063 0.040122 0.041094 0.041976 0.042766 0.043463 0.044065 0.044570 0.044978 0.045285 0.045491 0.045594 0.045592 0.045484
-0.036555 -0.124052 -0.242878 -0.386777 -0.513392 -0.578698 -0.588223 -0.591964 -0.606912 -0.605165 -0.585247 -0.575494 -0.575544 -0.565993 -0.554382 -0.554153 -0.551284 -0.534948 -0.519569 -0.515227 -0.514887 -0.511490 -0.508234 -0.513654 -0.523469 -0.521627 -0.509476 -0.503241 -0.501190 -0.487311 -0.460727 -0.435820 -0.415785 -0.384651 -0.338927 -0.302243 -0.280745 -0.248415 -0.203334 -0.175102 -0.165238 -0.147219 -0.120049 -0.104180 -0.097938 -0.084065 -0.065287 -0.056533 -0.054305 -0.043991 -0.027619 -0.016015 -0.001895 0.023320 0.035741 0.015732 0.007683 0.070941 0.170776 0.193765 0.096421 -0.036796 -0.128177 -0.187721 -0.213635 -0.174593 -0.101867 -0.045032 0.004418 0.066244 0.137450 0.196678 0.224313 0.248011 0.274187 0.265712 0.285224 0.343603 0.239738 -0.018457 -0.132673 -0.078431 -0.061053 -0.079435 -0.063040 -0.051016 -0.053328 -0.044955 -0.036595 -0.033818 -0.027853 -0.021506 -0.017308 -0.012282 -0.007066 -0.002718 0.001746 0.006223 0.010297 0.014283 0.018188 0.021854 0.025379 0.028781 0.032002 0.035072 0.038003 0.040774 0.043396 0.045875 0.048204 0.050387 0.052428 0.054326 0.056082 0.057700 0.059180 0.060524 0.061734 0.062812 0.063758 0.064577 0.065268 0.065835 0.066280 0.066604 0.066809 0.066899 0.066875 0.066739 0.066495 0.066144 0.065689 0.065132 0.064476 0.063725 0.062879 0.061943 0.060918 0.059809 0.058617 0.057346 0.055998 0.054577 0.053086 0.051528 0.049906 0.048223 0.046483 0.044689 0.042845 0.040953 0.039017 0.037042 0.035030 0.032985 0.030910 0.028811 0.026689 0.024550 0.022396 0.020233 0.018063 0.015891 0.013721 0.011557 0.009403 0.007263 0.005142 0.003045 0.000974 -0.001065 -0.003068 -0.005031 -0.006948 -0.008816 -0.010629 -0.012384 -0.014075 -0.015697 -0.017246 -0.018718 -0.020106 -0.021406 -0.022613 -0.023723
0.021285 0.040211 0.006363 -0.018952 -0.002371 -0.001706 -0.069366 -0.227912 -0.429651 -0.546789 -0.548709 -0.537522 -0.553579 -0.558671 -0.551443 -0.546566 -0.539570 -0.533388 -0.529930 -0.521504 -0.512784 -0.514834 -0.520858 -0.515813 -0.504405 -0.502611 -0.503743 -0.490511 -0.474807 -0.477095 -0.485984 -0.485677 -0.488674 -0.505133 -0.516016 -0.501153 -0.468920 -0.437093 -0.401824 -0.351102 -0.293114 -0.245459 -0.209979 -0.178865 -0.155010 -0.144653 -0.138717 -0.126327 -0.113438 -0.106888 -0.100002 -0.086987 -0.073831 -0.067605 -0.064120 -0.054818 -0.042109 -0.034218 -0.028960 -0.018896 -0.007304 -0.002917 -0.002566 0.004047 0.014755 0.019636 0.020682 0.026354 0.034610 0.038414 0.039873 0.045773 0.053695 0.056145 0.056109 0.061367 0.068211 0.069306 0.068639 0.073398 0.080565 0.082501 0.080798 0.083551 0.088859 0.087785 0.083258 0.084103 0.087384 0.086411 0.083998 0.086264 0.091399 0.091079 0.085213 0.083223 0.084206 0.079630 0.075037 0.078834 0.081840 0.074975 0.067672 0.069389 0.072972 0.068313 0.058293 0.053975 0.056922 0.055327 0.045763 0.040926 0.044128 0.042477 0.033453 0.029982 0.034468 0.033232 0.022780 0.016885 0.018226 0.012658 0.000278 -0.003547 0.000128 -0.002613 -0.010394 -0.012582 -0.011712 -0.016744 -0.024346 -0.025210 -0.023171 -0.028385 -0.036384 -0.038215 -0.037868 -0.037372 -0.031777 -0.023739 -0.013179 0.003786 0.015661 0.015377 0.011867 -0.002661 -0.037714 -0.067869 -0.072077 -0.068617 -0.074269 -0.078838 -0.074167 -0.070988 -0.080805 -0.094127 -0.075238 0.030222 0.243081 0.433391 0.376779 0.102373 -0.069166 -0.025364 0.018809 -0.025168 -0.044839 -0.022397 -0.014777 -0.014406 -0.006629 0.000755 0.014430 0.026758 0.025730 0.040104 0.066535 0.064170 0.082013 0.131483 0.064673 -0.107672 -0.175254 -0.129073 -0.098542 -0.089287
-0.040851 -0.047582 -0.348925 -0.775356 -0.981503 -0.945173 -0.856074 -0.770528 -0.673039 -0.614096 -0.606143 -0.598678 -0.581485 -0.571011 -0.559183 -0.543123 -0.534878 -0.530039 -0.515978 -0.499833 -0.493381 -0.488353 -0.475323 -0.461158 -0.449331 -0.433556 -0.412889 -0.390533 -0.367917 -0.345762 -0.321955 -0.296254 -0.275526 -0.262171 -0.250404 -0.242589 -0.245828 -0.250289 -0.242203 -0.230774 -0.228575 -0.225642 -0.212856 -0.201679 -0.198516 -0.190849 -0.173870 -0.160579 -0.156127 -0.149647 -0.134781 -0.119026 -0.111134 -0.105570 -0.091681 -0.078655 -0.079329 -0.078091 -0.059704 -0.041805 -0.039134 -0.036874 -0.023905 -0.011423 -0.005412 0.004182 0.020336 0.036271 0.052288 0.070058 0.089201 0.116754 0.147390 0.159321 0.158707 0.167247 0.169441 0.150365 0.133587 0.127368 0.116630 0.108274 0.116050 0.133565 0.140189 0.135125 0.179468 0.325348 0.526791 0.714714 0.817899 0.718413 0.444015 0.235347 0.195542 0.190362 0.158205 0.150967 0.163099 0.171473 0.171938 0.155802 0.171794 0.211780 0.127581 -0.061356 -0.140616 -0.102273 -0.091812 -0.104932 -0.093592 -0.086042 -0.088087 -0.082530 -0.077233 -0.075703 -0.071863 -0.067829 -0.065244 -0.062031 -0.058696 -0.055936 -0.053060 -0.050162 -0.047521 -0.044912 -0.042339 -0.039907 -0.037547 -0.035249 -0.033052 -0.030934 -0.028887 -0.026926 -0.025042 -0.023233 -0.021501 -0.019845 -0.018261 -0.016751 -0.015312 -0.013943 -0.012644 -0.011413 -0.010249 -0.009150 -0.008116 -0.007145 -0.006236 -0.005387 -0.004597 -0.003865 -0.003189 -0.002568 -0.002001 -0.001486 -0.001021 -0.000605 -0.000237 0.000085 0.000363 0.000598 0.000793 0.000947 0.001064 0.001145 0.001191 0.001205 0.001188 0.001142 0.001068 0.000969 0.000846 0.000702 0.000537 0.000355 0.000157 -0.000055 -0.000280 -0.000514 -0.000756 -0.001005 -0.001257 -0.001511 -0.001765 -0.002016
-0.021478 -0.138255 -0.312850 -0.517030 -0.613846 -0.565226 -0.505354 -0.493301 -0.463107 -0.408232 -0.367220 -0.333921 -0.305167 -0.295815 -0.297669 -0.294562 -0.284379 -0.273208 -0.269451 -0.271028 -0.265543 -0.253299 -0.244072 -0.234275 -0.214616 -0.187021 -0.158909 -0.132176 -0.101277 -0.065034 -0.034728 -0.014536 0.005273 0.023210 0.027943 0.022084 0.016374 0.010963 -0.002248 -0.020840 -0.030938 -0.035401 -0.051721 -0.072745 -0.076572 -0.070186 -0.074207 -0.083104 -0.080142 -0.071098 -0.072203 -0.078453 -0.073581 -0.061896 -0.058786 -0.061264 -0.056574 -0.047578 -0.046956 -0.052558 -0.049229 -0.037579 -0.034811 -0.040666 -0.038113 -0.028993 -0.027047 -0.027143 -0.020110 -0.013217 -0.011530 -0.009048 -0.003993 0.000450 0.003846 0.008137 0.016489 0.028072 0.035847 0.040368 0.052595 0.071766 0.082969 0.083453 0.082507 0.078250 0.066000 0.054845 0.051197 0.049751 0.049282 0.052263 0.058115 0.069488 0.083311 0.100141 0.161523 0.296354 0.468052 0.668169 0.850040 0.779561 0.387399 0.044233 0.007109 0.075228 0.071853 0.055557 0.056575 0.067885 0.084590 0.028706 -0.093264 -0.146224 -0.120622 -0.112390 -0.120689 -0.112687 -0.106764 -0.107461 -0.103116 -0.098767 -0.096978 -0.093656 -0.090130 -0.087568 -0.084581 -0.081475 -0.078737 -0.075911 -0.073047 -0.070337 -0.067637 -0.064942 -0.062329 -0.059750 -0.057200 -0.054705 -0.052252 -0.049837 -0.047470 -0.045146 -0.042865 -0.040629 -0.038438 -0.036290 -0.034188 -0.032131 -0.030120 -0.028154 -0.026233 -0.024359 -0.022530 -0.020748 -0.019012 -0.017323 -0.015681 -0.014085 -0.012537 -0.011036 -0.009582 -0.008176 -0.006817 -0.005506 -0.004243 -0.003028 -0.001861 -0.000743 0.000328 0.001350 0.002323 0.003248 0.004124 0.004952 0.005730 0.006460 0.007141 0.007773 0.008356 0.008890 0.009375 0.009811 0.010198 0.010535 0.010824 0.011063
-0.054031 -0.090751 -0.212075 -0.447846 -0.670132 -0.741965 -0.721980 -0.727637 -0.752031 -0.747936 -0.728743 -0.720379 -0.716685 -0.706751 -0.697503 -0.695973 -0.693795 -0.682445 -0.669379 -0.666990 -0.671023 -0.667095 -0.659103 -0.660489 -0.662747 -0.652661 -0.639235 -0.630049 -0.615128 -0.589017 -0.557282 -0.523583 -0.486527 -0.443036 -0.395449 -0.352383 -0.315136 -0.278791 -0.247954 -0.228638 -0.212990 -0.192164 -0.171690 -0.160041 -0.152114 -0.137837 -0.120961 -0.110611 -0.102265 -0.088163 -0.071507 -0.057854 -0.051661 -0.052799 -0.039858 0.022418 0.148776 0.293854 0.353752 0.281945 0.163477 0.072724 -0.013282 -0.089413 -0.102176 -0.061871 -0.023152 0.003078 0.039476 0.076972 0.092848 0.120683 0.158355 0.102257 -0.033167 -0.089473 -0.056927 -0.043912 -0.049688 -0.037394 -0.027482 -0.025164 -0.017371 -0.009685 -0.005020 0.001206 0.007529 0.012628 0.018055 0.023479 0.028348 0.033176 0.037909 0.042331 0.046606 0.050739 0.054647 0.058383 0.061957 0.065338 0.068544 0.071580 0.074439 0.077124 0.079640 0.081986 0.084163 0.086175 0.088022 0.089706 0.091229 0.092593 0.093800 0.094853 0.095752 0.096501 0.097101 0.097556 0.097866 0.098035 0.098065 0.097958 0.097718 0.097347 0.096847 0.096221 0.095472 0.094603 0.093617 0.092516 0.091305 0.089985 0.088560 0.087034 0.085408 0.083688 0.081875 0.079974 0.077988 0.075921 0.073775 0.071555 0.069264 0.066906 0.064484 0.062004 0.059467 0.056879 0.054243 0.051563 0.048843 0.046088 0.043301 0.040487 0.037651 0.034795 0.031925 0.029045 0.026160 0.023273 0.020390 0.017515 0.014653 0.011808 0.008986 0.006190 0.003427 0.000699 -0.001986 -0.004625 -0.007213 -0.009744 -0.012213 -0.014615 -0.016946 -0.019198 -0.021369 -0.023451 -0.025440 -0.027331 -0.029117 -0.030793 -0.032354 -0.033794 -0.035108 -0.036289
0.013161 0.024344 0.078760 0.142216 0.189903 0.240540 0.287759 0.330564 0.406896 0.503489 0.551336 0.539112 0.517019 0.514321 0.523434 0.530327 0.532016 0.532765 0.532460 0.528104 0.523831 0.533254 0.556817 0.566707 0.552930 0.541920 0.533689 0.503121 0.462390 0.433974 0.404530 0.360355 0.317208 0.293635 0.278687 0.248579 0.215358 0.205261 0.201881 0.184746 0.172707 0.175150 0.172665 0.160214 0.152970 0.154083 0.149341 0.136713 0.128287 0.121420 0.111461 0.106961 0.105160 0.099637 0.093595 0.081751 0.068972 0.071303 0.071292 0.054547 0.052271 0.068226 0.062673 0.041223 0.040132 0.048653 0.043796 0.038548 0.043393 0.047711 0.047223 0.045374 0.042470 0.042027 0.046372 0.045003 0.039505 0.053859 0.079563 0.082762 0.080901 0.104862 0.127599 0.125298 0.121170 0.124402 0.114384 0.088881 0.069023 0.062281 0.062321 0.071859 0.079366 0.071501 0.097312 0.204374 0.355396 0.500227 0.577526 0.486273 0.266277 0.121859 0.119688 0.116475 0.058972 0.076452 0.137746 -0.003141 -0.297582 -0.418965 -0.362776 -0.347381 -0.367015 -0.350354 -0.338756 -0.341211 -0.332277 -0.323383 -0.319860 -0.312733 -0.305066 -0.299333 -0.292478 -0.285225 -0.278626 -0.271668 -0.264486 -0.257499 -0.250386 -0.243154 -0.235964 -0.228721 -0.221416 -0.214110 -0.206779 -0.199418 -0.192052 -0.184678 -0.177295 -0.169915 -0.162542 -0.155178 -0.147830 -0.140503 -0.133201 -0.125930 -0.118695 -0.111501 -0.104353 -0.097256 -0.090216 -0.083238 -0.076327 -0.069489 -0.062729 -0.056053 -0.049465 -0.042972 -0.036579 -0.030292 -0.024116 -0.018058 -0.012121 -0.006313 -0.000640 0.004894 0.010282 0.015518 0.020597 0.025513 0.030259 0.034830 0.039219 0.043421 0.047430 0.051239 0.054842 0.058233 0.061406 0.064355 0.067073 0.069554 0.071792 0.073781 0.075513 0.076983
0.036203 0.063996 0.134035 0.267964 0.375942 0.374220 0.327097 0.312746 0.317801 0.320755 0.322793 0.316582 0.298868 0.281159 0.274204 0.278213 0.285627 0.287971 0.289960 0.308543 0.337034 0.348836 0.352167 0.374029 0.403324 0.419332 0.433750 0.453960 0.460439 0.449569 0.440146 0.431496 0.408777 0.371174 0.327603 0.291787 0.268395 0.241697 0.211886 0.194873 0.172577 0.129969 0.102429 0.106924 0.112205 0.104726 0.096125 0.089331 0.080261 0.062888 0.039696 0.026099 0.025412 0.025320 0.017465 0.001856 -0.015028 -0.028596 -0.038042 -0.039477 -0.038628 -0.044327 -0.046173 -0.040448 -0.044755 -0.061724 -0.075732 -0.084053 -0.092284 -0.089928 -0.069695 -0.057027 -0.069551 -0.084738 -0.090733 -0.099235 -0.105996 -0.107093 -0.111787 -0.115529 -0.111235 -0.105187 -0.100490 -0.096231 -0.094351 -0.094680 -0.093260 -0.085736 -0.078650 -0.086133 -0.100545 -0.098836 -0.084957 -0.080453 -0.080544 -0.070511 -0.062839 -0.067820 -0.072027 -0.071196 -0.063218 -0.043109 -0.040723 -0.069857 -0.079718 -0.053002 -0.035780 -0.033019 -0.011301 0.026251 0.058246 0.077502 0.086354 0.092174 0.087840 0.066293 0.049903 0.044468 0.037651 0.050857 0.071822 0.065163 0.148391 0.446945 0.727252 0.632106 0.270118 0.049315 0.050172 0.077592 0.070792 0.055372 0.028492 0.051847 0.108836 0.027175 -0.169690 -0.251817 -0.210688 -0.197652 -0.209163 -0.195509 -0.185372 -0.185084 -0.176950 -0.168883 -0.164616 -0.157913 -0.150891 -0.145282 -0.138962 -0.132433 -0.126430 -0.120251 -0.113990 -0.107941 -0.101884 -0.095822 -0.089873 -0.083971 -0.078110 -0.072337 -0.066636 -0.061006 -0.055466 -0.050015 -0.044657 -0.039400 -0.034249 -0.029209 -0.024286 -0.019485 -0.014812 -0.010274 -0.005875 -0.001621 0.002481 0.006426 0.010207 0.013819 0.017255 0.020509 0.023576 0.026448 0.029120 0.031585
-0.022204 -0.098639 -0.253609 -0.457085 -0.631414 -0.751584 -0.823519 -0.847397 -0.841228 -0.831459 -0.823197 -0.808492 -0.785963 -0.765244 -0.750233 -0.732409 -0.712064 -0.697150 -0.684590 -0.669672 -0.656060 -0.646593 -0.639930 -0.632037 -0.617254 -0.597285 -0.584050 -0.580937 -0.572246 -0.550972 -0.533737 -0.523773 -0.500911 -0.467273 -0.447495 -0.437885 -0.413758 -0.377103 -0.346132 -0.328584 -0.330327 -0.334630 -0.298778 -0.235327 -0.212495 -0.238012 -0.253282 -0.226771 -0.171824 -0.122180 -0.106416 -0.108467 -0.093467 -0.067055 -0.050619 -0.038811 -0.021041 -0.002528 0.007403 0.012079 0.025359 0.046409 0.070060 0.109798 0.154562 0.160879 0.112126 0.024269 -0.059003 -0.083981 -0.063829 -0.052129 -0.050242 -0.040186 -0.030753 -0.025264 -0.017451 -0.009578 -0.003307 0.003524 0.010365 0.016503 0.022658 0.028724 0.034417 0.039968 0.045372 0.050520 0.055484 0.060273 0.064847 0.069229 0.073427 0.077425 0.081232 0.084853 0.088282 0.091523 0.094578 0.097448 0.100135 0.102639 0.104963 0.107109 0.109077 0.110870 0.112489 0.113938 0.115216 0.116328 0.117274 0.118057 0.118680 0.119144 0.119452 0.119607 0.119611 0.119466 0.119175 0.118741 0.118167 0.117456 0.116609 0.115631 0.114525 0.113292 0.111937 0.110463 0.108873 0.107169 0.105356 0.103437 0.101416 0.099295 0.097078 0.094770 0.092373 0.089891 0.087328 0.084689 0.081976 0.079194 0.076346 0.073438 0.070472 0.067453 0.064385 0.061272 0.058119 0.054930 0.051710 0.048462 0.045191 0.041902 0.038599 0.035287 0.031971 0.028655 0.025344 0.022044 0.018757 0.015491 0.012249 0.009036 0.005859 0.002721 -0.000373 -0.003416 -0.006404 -0.009331 -0.012192 -0.014982 -0.017696 -0.020327 -0.022871 -0.025321 -0.027673 -0.029920 -0.032057 -0.034078 -0.035977 -0.037749 -0.039388 -0.040887 -0.042241 -0.043444
0.016144 0.012699 0.064384 0.144580 0.215553 0.274243 0.310801 0.330947 0.377973 0.454163 0.503916 0.507213 0.498082 0.497175 0.498780 0.499606 0.500792 0.503202 0.507045 0.510187 0.515310 0.525342 0.531876 0.531143 0.532842 0.536505 0.528693 0.506776 0.480043 0.452094 0.418733 0.380858 0.346160 0.315624 0.284757 0.258425 0.241831 0.225788 0.206068 0.194893 0.193422 0.186119 0.171562 0.164243 0.165014 0.160325 0.149731 0.144811 0.143530 0.135493 0.124132 0.118933 0.117633 0.112380 0.104803 0.101805 0.101080 0.096055 0.089146 0.086097 0.086096 0.084224 0.078307 0.073636 0.075581 0.077295 0.071718 0.068374 0.074473 0.077916 0.073955 0.078242 0.092885 0.102991 0.113511 0.134006 0.146269 0.141007 0.136374 0.132344 0.114208 0.091002 0.075793 0.066065 0.066128 0.078142 0.079229 0.070992 0.111992 0.230674 0.387964 0.538056 0.596298 0.468696 0.241100 0.113275 0.112832 0.102760 0.046313 0.062189 0.122532 -0.006420 -0.287954 -0.407801 -0.354231 -0.339253 -0.359474 -0.344159 -0.333353 -0.336574 -0.328675 -0.320647 -0.317948 -0.311740 -0.304934 -0.300035 -0.294039 -0.287624 -0.281842 -0.275704 -0.269326 -0.263129 -0.256797 -0.250331 -0.243895 -0.237392 -0.230812 -0.224217 -0.217582 -0.210900 -0.204198 -0.197469 -0.190715 -0.183946 -0.177164 -0.170372 -0.163577 -0.156782 -0.149991 -0.143209 -0.136440 -0.129689 -0.122961 -0.116260 -0.109591 -0.102957 -0.096365 -0.089819 -0.083323 -0.076882 -0.070501 -0.064184 -0.057938 -0.051765 -0.045672 -0.039663 -0.033743 -0.027917 -0.022190 -0.016567 -0.011054 -0.005654 -0.000373 0.004783 0.009811 0.014703 0.019456 0.024065 0.028523 0.032826 0.036969 0.040946 0.044752 0.048381 0.051829 0.055091 0.058159 0.061031 0.063699 0.066158 0.068404 0.070430 0.072231 0.073801 0.075136 0.076229
-0.081424 0.018564 0.041520 0.008120 -0.029418 -0.066934 -0.102924 -0.120239 -0.167199 -0.319947 -0.526581 -0.654245 -0.683500 -0.689361 -0.700655 -0.706468 -0.705991 -0.700184 -0.695531 -0.697652 -0.696587 -0.690433 -0.688343 -0.685764 -0.676131 -0.664562 -0.651541 -0.633974 -0.614420 -0.588260 -0.549839 -0.507715 -0.464514 -0.415294 -0.372056 -0.342679 -0.314440 -0.289504 -0.281567 -0.277939 -0.261811 -0.244159 -0.235254 -0.224858 -0.207485 -0.190204 -0.174986 -0.160439 -0.150201 -0.143206 -0.132480 -0.117351 -0.102114 -0.090358 -0.084062 -0.079177 -0.069495 -0.055498 -0.042765 -0.035480 -0.031688 -0.025899 -0.014929 -0.000898 0.007480 0.009290 0.017366 0.032023 0.042210 0.050911 0.060167 0.062663 0.065935 0.081583 0.103571 0.125523 0.148403 0.168472 0.181154 0.182871 0.171884 0.157125 0.146650 0.140880 0.144913 0.154494 0.156810 0.162508 0.168564 0.162618 0.262745 0.578872 0.850256 0.729837 0.385447 0.209343 0.212638 0.214763 0.196690 0.195827 0.205262 0.208155 0.197639 0.216967 0.255397 0.182587 0.015144 -0.057419 -0.024984 -0.016216 -0.029120 -0.020466 -0.014775 -0.017818 -0.014222 -0.010725 -0.010643 -0.008570 -0.006290 -0.005326 -0.003836 -0.002234 -0.001159 -0.000000 0.001173 0.002108 0.003002 0.003858 0.004582 0.005234 0.005828 0.006327 0.006754 0.007115 0.007399 0.007614 0.007765 0.007848 0.007868 0.007828 0.007729 0.007571 0.007359 0.007094 0.006778 0.006414 0.006002 0.005547 0.005049 0.004511 0.003935 0.003324 0.002680 0.002005 0.001302 0.000572 -0.000182 -0.000957 -0.001751 -0.002561 -0.003386 -0.004222 -0.005068 -0.005920 -0.006776 -0.007633 -0.008490 -0.009343 -0.010190 -0.011027 -0.011854 -0.012666 -0.013461 -0.014236 -0.014989 -0.015717 -0.016418 -0.017087 -0.017723 -0.018323 -0.018883 -0.019402 -0.019875 -0.020301 -0.020676 -0.020997
-0.063836 0.047083 0.084899 0.047302 -0.005091 -0.009764 0.044553 0.055519 -0.106681 -0.363457 -0.510420 -0.530221 -0.538732 -0.558136 -0.558737 -0.551267 -0.549136 -0.548136 -0.543074 -0.534404 -0.530773 -0.532244 -0.525430 -0.512225 -0.507049 -0.508809 -0.510791 -0.511771 -0.504278 -0.484778 -0.460575 -0.427486 -0.374994 -0.314754 -0.266498 -0.229329 -0.196514 -0.172764 -0.159073 -0.148844 -0.139966 -0.131403 -0.120871 -0.109203 -0.096268 -0.082089 -0.069058 -0.058137 -0.048078 -0.032235 -0.002332 0.090047 0.345965 0.670556 0.694397 0.344365 0.050491 0.036979 0.086116 0.078279 0.081517 0.092244 0.096128 0.106494 0.102275 0.115609 0.152267 0.083372 -0.082265 -0.151584 -0.113577 -0.100737 -0.109888 -0.096611 -0.086732 -0.085804 -0.077948 -0.070335 -0.066259 -0.060119 -0.053837 -0.048948 -0.043539 -0.038067 -0.033181 -0.028247 -0.023347 -0.018741 -0.014223 -0.009797 -0.005559 -0.001448 0.002547 0.006388 0.010096 0.013677 0.017118 0.020424 0.023601 0.026644 0.029554 0.032335 0.034985 0.037506 0.039899 0.042165 0.044304 0.046318 0.048208 0.049974 0.051620 0.053144 0.054549 0.055837 0.057008 0.058064 0.059006 0.059836 0.060556 0.061167 0.061670 0.062068 0.062362 0.062554 0.062647 0.062640 0.062538 0.062340 0.062051 0.061671 0.061203 0.060649 0.060010 0.059290 0.058491 0.057614 0.056663 0.055639 0.054545 0.053383 0.052156 0.050867 0.049518 0.048111 0.046650 0.045137 0.043575 0.041966 0.040314 0.038621 0.036890 0.035124 0.033327 0.031500 0.029648 0.027773 0.025878 0.023967 0.022043 0.020109 0.018169 0.016225 0.014281 0.012341 0.010407 0.008484 0.006575 0.004683 0.002813 0.000967 -0.000851 -0.002636 -0.004385 -0.006095 -0.007762 -0.009381 -0.010949 -0.012461 -0.013915 -0.015305 -0.016628 -0.017880 -0.019057 -0.020154 -0.021167 -0.022093
-0.058828 -0.121385 -0.154768 -0.253526 -0.402547 -0.487662 -0.522412 -0.546725 -0.532672 -0.523707 -0.576266 -0.630867 -0.637703 -0.639880 -0.671148 -0.713113 -0.738334 -0.739538 -0.732107 -0.728891 -0.724175 -0.711569 -0.698086 -0.691817 -0.684858 -0.667394 -0.649504 -0.636986 -0.614069 -0.580080 -0.554976 -0.538456 -0.514361 -0.484815 -0.460955 -0.437715 -0.405846 -0.373508 -0.350325 -0.328310 -0.303469 -0.284800 -0.271112 -0.257703 -0.248255 -0.238818 -0.226543 -0.220236 -0.217702 -0.209712 -0.200260 -0.193271 -0.186070 -0.180370 -0.176806 -0.172690 -0.168592 -0.163171 -0.153536 -0.142237 -0.132284 -0.123017 -0.113037 -0.101635 -0.090100 -0.080419 -0.072906 -0.067294 -0.062038 -0.054155 -0.043176 -0.031640 -0.021575 -0.013149 -0.006760 -0.003654 -0.000381 0.009574 0.022241 0.028537 0.034828 0.052701 0.073399 0.078972 0.071389 0.065723 0.063259 0.057690 0.053216 0.053175 0.053756 0.057602 0.067877 0.076894 0.079246 0.080250 0.083044 0.084246 0.085453 0.091560 0.097745 0.099504 0.104299 0.110076 0.105233 0.100109 0.108440 0.117762 0.119757 0.123177 0.127764 0.129366 0.131460 0.133981 0.134323 0.138076 0.151888 0.168525 0.182596 0.211940 0.267305 0.342364 0.447768 0.567709 0.644926 0.692859 0.760001 0.799457 0.771083 0.709101 0.609061 0.477271 0.379368 0.326215 0.300415 0.299918 0.274231 0.201054 0.141460 0.119034 0.089329 0.029951 -0.028225 -0.054391 -0.063772 -0.075242 -0.079331 -0.083775 -0.101634 -0.110360 -0.101701 -0.101987 -0.112538 -0.114011 -0.110106 -0.110081 -0.109818 -0.107906 -0.107095 -0.106361 -0.105002 -0.103958 -0.102977 -0.101754 -0.100603 -0.099472 -0.098237 -0.097000 -0.095754 -0.094451 -0.093122 -0.091769 -0.090374 -0.088944 -0.087481 -0.085978 -0.084437 -0.082857 -0.081237 -0.079575 -0.077872 -0.076125 -0.074335 -0.072500 -0.070620 -0.068693
-0.111218 -0.145763 -0.376319 -0.624768 -0.709118 -0.720692 -0.748652 -0.757202 -0.742758 -0.736368 -0.733984 -0.727556 -0.722554 -0.720013 -0.718084 -0.715946 -0.714276 -0.715849 -0.720164 -0.724312 -0.729512 -0.737672 -0.746480 -0.754500 -0.761608 -0.763040 -0.756984 -0.750557 -0.745543 -0.735730 -0.720424 -0.701427 -0.677450 -0.649012 -0.615222 -0.574663 -0.533939 -0.498725 -0.463462 -0.423580 -0.384364 -0.348638 -0.313512 -0.283677 -0.263169 -0.240722 -0.210790 -0.185643 -0.168643 -0.148979 -0.124936 -0.104173 -0.088437 -0.073568 -0.057975 -0.042800 -0.027662 -0.013021 -0.000270 0.012724 0.026202 0.035734 0.041778 0.050004 0.061642 0.072620 0.081273 0.090803 0.102416 0.112589 0.118123 0.120408 0.126468 0.139472 0.151483 0.158883 0.167758 0.176780 0.181464 0.187063 0.195137 0.198744 0.200810 0.210897 0.224038 0.229535 0.232456 0.240078 0.245742 0.248360 0.257895 0.269550 0.271096 0.275177 0.293853 0.300440 0.290046 0.304910 0.320233 0.301602 0.374914 0.591472 0.719134 0.635522 0.514151 0.442877 0.350008 0.237174 0.144294 0.068849 0.015750 -0.007992 -0.004013 0.032292 0.099482 0.187539 0.247687 0.250811 0.310783 0.427749 0.324933 0.007544 -0.142604 -0.082559 -0.065873 -0.094888 -0.080824 -0.071225 -0.079677 -0.074885 -0.069674 -0.071360 -0.069019 -0.065959 -0.065447 -0.063793 -0.061723 -0.060586 -0.059170 -0.057577 -0.056334 -0.055056 -0.053723 -0.052535 -0.051372 -0.050209 -0.049118 -0.048062 -0.047028 -0.046039 -0.045083 -0.044155 -0.043260 -0.042395 -0.041557 -0.040746 -0.039962 -0.039201 -0.038463 -0.037747 -0.037051 -0.036374 -0.035716 -0.035074 -0.034447 -0.033835 -0.033235 -0.032647 -0.032069 -0.031501 -0.030940 -0.030386 -0.029838 -0.029294 -0.028752 -0.028213 -0.027674 -0.027135 -0.026593 -0.026049 -0.025501 -0.024947 -0.024387 -0.023819 -0.023243 -0.022656
-0.014537 0.056042 -0.270294 -0.697856 -0.824824 -0.784275 -0.806582 -0.831027 -0.809873 -0.805140 -0.809830 -0.797876 -0.786119 -0.778490 -0.769887 -0.759611 -0.739561 -0.710903 -0.682209 -0.648829 -0.605374 -0.562282 -0.531314 -0.507234 -0.479661 -0.452740 -0.432911 -0.415140 -0.398185 -0.386665 -0.374777 -0.356457 -0.341355 -0.336177 -0.328779 -0.312016 -0.297436 -0.287991 -0.271657 -0.249230 -0.231028 -0.213737 -0.189331 -0.160927 -0.138623 -0.131597 -0.136506 -0.134080 -0.117368 -0.105033 -0.105529 -0.103586 -0.092346 -0.079889 -0.068391 -0.055889 -0.045146 -0.033793 -0.018630 -0.009658 -0.005682 0.010220 0.027981 0.034135 0.067091 0.185207 0.377665 0.484578 0.320920 -0.001631 -0.153057 -0.064971 0.053465 0.099039 0.121056 0.153603 0.175116 0.167390 0.188422 0.240549 0.172340 -0.011965 -0.094700 -0.054508 -0.040093 -0.052357 -0.039528 -0.029524 -0.030152 -0.023144 -0.016047 -0.013095 -0.007906 -0.002434 0.001426 0.005830 0.010347 0.014193 0.018077 0.021935 0.025463 0.028885 0.032211 0.035326 0.038300 0.041148 0.043828 0.046362 0.048759 0.051005 0.053108 0.055071 0.056893 0.058575 0.060121 0.061531 0.062806 0.063949 0.064962 0.065846 0.066603 0.067235 0.067744 0.068132 0.068402 0.068555 0.068593 0.068519 0.068336 0.068045 0.067648 0.067149 0.066550 0.065853 0.065061 0.064177 0.063203 0.062143 0.060998 0.059772 0.058467 0.057087 0.055635 0.054113 0.052525 0.050874 0.049162 0.047394 0.045573 0.043701 0.041783 0.039821 0.037820 0.035782 0.033711 0.031611 0.029486 0.027338 0.025173 0.022993 0.020803 0.018606 0.016407 0.014209 0.012016 0.009833 0.007663 0.005511 0.003381 0.001277 -0.000797 -0.002836 -0.004836 -0.006792 -0.008701 -0.010556 -0.012355 -0.014092 -0.015763 -0.017362 -0.018886 -0.020329 -0.021687 -0.022954 -0.024126 -0.025198
0.030903 0.196015 0.390105 0.573852 0.674885 0.668524 0.621729 0.612724 0.625783 0.619921 0.612770 0.617534 0.614996 0.604501 0.599361 0.598729 0.598444 0.602218 0.613391 0.629004 0.644358 0.656152 0.664636 0.676452 0.690949 0.693522 0.681309 0.664635 0.639033 0.600428 0.565355 0.539396 0.507909 0.468754 0.433097 0.407601 0.394530 0.388327 0.379578 0.370625 0.367125 0.364378 0.358107 0.352050 0.350207 0.350667 0.346273 0.335639 0.328465 0.326896 0.321220 0.313523 0.310488 0.299879 0.276195 0.258537 0.250638 0.237424 0.229281 0.244135 0.271297 0.312222 0.390005 0.484150 0.550962 0.575808 0.519769 0.353502 0.178382 0.112141 0.114050 0.098782 0.076874 0.075816 0.073041 0.059219 0.062547 0.076961 0.074290 0.084753 0.104287 0.080817 0.102383 0.177952 0.037763 -0.304545 -0.458364 -0.393899 -0.377353 -0.406254 -0.389806 -0.378873 -0.385985 -0.378904 -0.371570 -0.371069 -0.366085 -0.360296 -0.356937 -0.352166 -0.346831 -0.342288 -0.337272 -0.331924 -0.326782 -0.321445 -0.315911 -0.310384 -0.304745 -0.298977 -0.293156 -0.287251 -0.281252 -0.275190 -0.269057 -0.262851 -0.256586 -0.250263 -0.243883 -0.237453 -0.230976 -0.224456 -0.217898 -0.211305 -0.204681 -0.198031 -0.191359 -0.184669 -0.177966 -0.171253 -0.164534 -0.157815 -0.151098 -0.144389 -0.137692 -0.131011 -0.124350 -0.117714 -0.111107 -0.104533 -0.097997 -0.091502 -0.085054 -0.078657 -0.072314 -0.066031 -0.059811 -0.053659 -0.047580 -0.041577 -0.035656 -0.029819 -0.024073 -0.018421 -0.012867 -0.007416 -0.002072 0.003161 0.008277 0.013273 0.018145 0.022888 0.027497 0.031969 0.036299 0.040483 0.044516 0.048395 0.052114 0.055670 0.059058 0.062274 0.065313 0.068172 0.070846 0.073331 0.075622 0.077716 0.079607 0.081292 0.082767 0.084027 0.085068 0.085886 0.086476 0.086835
-0.059628 -0.046273 -0.062634 -0.078996 -0.079084 -0.086075 -0.150409 -0.332509 -0.565127 -0.674368 -0.653806 -0.645157 -0.670234 -0.668365 -0.652074 -0.649441 -0.650077 -0.646304 -0.638226 -0.628383 -0.626276 -0.629178 -0.625497 -0.621731 -0.628556 -0.636353 -0.636642 -0.637459 -0.639305 -0.634253 -0.625352 -0.612897 -0.589202 -0.559156 -0.528307 -0.493105 -0.463178 -0.443612 -0.412974 -0.364627 -0.318808 -0.280528 -0.243743 -0.217696 -0.206574 -0.195236 -0.176791 -0.162431 -0.155317 -0.144287 -0.127103 -0.113965 -0.106321 -0.094760 -0.078437 -0.066258 -0.059224 -0.048332 -0.030732 -0.016230 -0.010780 -0.004015 0.011533 0.025725 0.032448 0.040354 0.052856 0.064006 0.071748 0.079310 0.090048 0.101615 0.107804 0.112261 0.123394 0.136010 0.141049 0.143516 0.152180 0.163765 0.170524 0.174889 0.183603 0.192928 0.195624 0.197526 0.207267 0.217167 0.218783 0.221612 0.230955 0.237285 0.240430 0.244020 0.247364 0.260577 0.268715 0.251156 0.265337 0.308203 0.230888 0.048880 -0.029022 0.006986 0.016296 0.002499 0.012308 0.018524 0.015340 0.019449 0.023307 0.023456 0.025789 0.028283 0.029329 0.030940 0.032637 0.033739 0.034915 0.036080 0.036965 0.037785 0.038541 0.039130 0.039622 0.040027 0.040310 0.040493 0.040584 0.040571 0.040464 0.040266 0.039977 0.039599 0.039138 0.038593 0.037967 0.037265 0.036488 0.035638 0.034719 0.033734 0.032684 0.031574 0.030405 0.029181 0.027905 0.026579 0.025207 0.023791 0.022336 0.020843 0.019316 0.017758 0.016172 0.014562 0.012931 0.011282 0.009618 0.007944 0.006261 0.004574 0.002886 0.001200 -0.000479 -0.002149 -0.003806 -0.005445 -0.007065 -0.008660 -0.010227 -0.011763 -0.013264 -0.014725 -0.016143 -0.017515 -0.018835 -0.020101 -0.021309 -0.022453 -0.023532 -0.024539 -0.025472 -0.026325 -0.027096 -0.027780
-0.034910 -0.089994 -0.325182 -0.616355 -0.782556 -0.839758 -0.861122 -0.853694 -0.829469 -0.817467 -0.811939 -0.795501 -0.769221 -0.744864 -0.743740 -0.757614 -0.740607 -0.706986 -0.708440 -0.712725 -0.689769 -0.688720 -0.704718 -0.688581 -0.661232 -0.641892 -0.613606 -0.593955 -0.587952 -0.564935 -0.534733 -0.513238 -0.477356 -0.438835 -0.429401 -0.423130 -0.394317 -0.362842 -0.338224 -0.317013 -0.302787 -0.287418 -0.268845 -0.265535 -0.277503 -0.274926 -0.243262 -0.211768 -0.205829 -0.198499 -0.174064 -0.170216 -0.183740 -0.166907 -0.138529 -0.138264 -0.137046 -0.111710 -0.096515 -0.110668 -0.116808 -0.085680 -0.062499 -0.082614 -0.085681 -0.045501 -0.033751 -0.056780 -0.049917 -0.024866 -0.016236 -0.004222 0.004107 -0.006571 0.005804 0.039012 0.028184 -0.006503 0.007836 0.049113 0.062397 0.060872 0.059235 0.046007 0.040611 0.063041 0.089245 0.095062 0.087826 0.083470 0.084232 0.078568 0.074712 0.104018 0.144478 0.132748 0.094977 0.110778 0.152781 0.144069 0.105606 0.095074 0.105812 0.107767 0.100622 0.108031 0.141241 0.163846 0.142968 0.118165 0.128702 0.141194 0.135108 0.145401 0.177513 0.192666 0.173383 0.147043 0.152206 0.171200 0.150878 0.124751 0.157445 0.189859 0.176148 0.219932 0.339136 0.379479 0.296562 0.207182 0.174234 0.180852 0.202687 0.201156 0.171271 0.166909 0.194430 0.196998 0.176437 0.182671 0.204689 0.206133 0.192610 0.179943 0.187954 0.216834 0.222231 0.218410 0.231681 0.162124 -0.001494 -0.083926 -0.056558 -0.048124 -0.065527 -0.060938 -0.057318 -0.063630 -0.063274 -0.062185 -0.064787 -0.065363 -0.065348 -0.066634 -0.067315 -0.067661 -0.068429 -0.069003 -0.069393 -0.069890 -0.070298 -0.070591 -0.070876 -0.071091 -0.071217 -0.071290 -0.071289 -0.071203 -0.071044 -0.070802 -0.070472 -0.070054 -0.069545 -0.068940 -0.068238 -0.067434
-0.048401 -0.038948 -0.337899 -0.709730 -0.835971 -0.814071 -0.832545 -0.852152 -0.821819 -0.797895 -0.798997 -0.795397 -0.788194 -0.786997 -0.782958 -0.775136 -0.771291 -0.767483 -0.758589 -0.752184 -0.752966 -0.751642 -0.741333 -0.727148 -0.712108 -0.691272 -0.661017 -0.622432 -0.579820 -0.535886 -0.489595 -0.448508 -0.425086 -0.411695 -0.391809 -0.371175 -0.361378 -0.353211 -0.337241 -0.322677 -0.315566 -0.306009 -0.289315 -0.276382 -0.272701 -0.266784 -0.251634 -0.237904 -0.232354 -0.225606 -0.211544 -0.196712 -0.186879 -0.179670 -0.169378 -0.156117 -0.147175 -0.141031 -0.127625 -0.113200 -0.110770 -0.109978 -0.096034 -0.078809 -0.072489 -0.071418 -0.064109 -0.052525 -0.044410 -0.037336 -0.026189 -0.016918 -0.014384 -0.009716 0.002575 0.011929 0.011999 0.013931 0.025856 0.038950 0.043607 0.044515 0.051491 0.061776 0.065687 0.067394 0.076158 0.085039 0.084949 0.084202 0.093147 0.104628 0.106404 0.103797 0.109923 0.120659 0.124025 0.123711 0.129891 0.138370 0.138649 0.137210 0.150207 0.171125 0.177647 0.171980 0.174596 0.185878 0.191697 0.190172 0.188747 0.189937 0.187140 0.174426 0.161728 0.159952 0.160007 0.158246 0.163692 0.166491 0.171785 0.225875 0.357293 0.579691 0.837259 0.866960 0.515348 0.141096 0.107996 0.218662 0.202966 0.152566 0.160798 0.164321 0.158709 0.166828 0.163501 0.160441 0.169861 0.164626 0.174935 0.205050 0.140104 -0.011604 -0.079886 -0.053378 -0.048108 -0.062468 -0.057177 -0.054469 -0.059618 -0.058649 -0.057674 -0.059712 -0.059850 -0.059705 -0.060660 -0.061042 -0.061225 -0.061788 -0.062176 -0.062451 -0.062840 -0.063164 -0.063420 -0.063691 -0.063922 -0.064102 -0.064259 -0.064375 -0.064442 -0.064470 -0.064450 -0.064378 -0.064256 -0.064080 -0.063845 -0.063551 -0.063195 -0.062775 -0.062287 -0.061730 -0.061102 -0.060398 -0.059618 -0.058759
-0.065250 0.017677 -0.009418 -0.074820 -0.085892 -0.036014 -0.000220 -0.109153 -0.343864 -0.511376 -0.549051 -0.558406 -0.573555 -0.567934 -0.559234 -0.563437 -0.566453 -0.565410 -0.566403 -0.566895 -0.566779 -0.568765 -0.567814 -0.559502 -0.547421 -0.532418 -0.511256 -0.483025 -0.443307 -0.391314 -0.342144 -0.305850 -0.274794 -0.248577 -0.237388 -0.236951 -0.232719 -0.222515 -0.213204 -0.206572 -0.200961 -0.196411 -0.191150 -0.181401 -0.167921 -0.154164 -0.142002 -0.133742 -0.126425 -0.113690 -0.100714 -0.092340 -0.080928 -0.068863 -0.065446 -0.063306 -0.054856 -0.044253 -0.033478 -0.025087 -0.020395 -0.012049 -0.000188 0.007881 0.015707 0.026883 0.038838 0.057640 0.084620 0.101038 0.097447 0.091895 0.096086 0.096907 0.087826 0.081932 0.086245 0.094341 0.102936 0.111476 0.110271 0.107701 0.132257 0.142739 0.123982 0.289337 0.694249 0.849805 0.485883 0.110815 0.101032 0.186073 0.169885 0.165581 0.186020 0.175213 0.175557 0.193883 0.188082 0.198490 0.229518 0.159487 0.001252 -0.067952 -0.037558 -0.028650 -0.040629 -0.032428 -0.026681 -0.029278 -0.025688 -0.022066 -0.021683 -0.019448 -0.016969 -0.015727 -0.013995 -0.012136 -0.010765 -0.009314 -0.007837 -0.006577 -0.005351 -0.004153 -0.003074 -0.002058 -0.001093 -0.000211 0.000605 0.001363 0.002051 0.002676 0.003243 0.003747 0.004193 0.004582 0.004914 0.005192 0.005417 0.005590 0.005713 0.005787 0.005814 0.005795 0.005732 0.005627 0.005481 0.005296 0.005073 0.004814 0.004521 0.004195 0.003838 0.003452 0.003039 0.002600 0.002137 0.001653 0.001148 0.000624 0.000084 -0.000470 -0.001037 -0.001616 -0.002203 -0.002797 -0.003396 -0.003998 -0.004601 -0.005203 -0.005802 -0.006396 -0.006982 -0.007560 -0.008126 -0.008679 -0.009216 -0.009735 -0.010234 -0.010711 -0.011164 -0.011590 -0.011988 -0.012354 -0.012687 -0.012984
-0.028783 0.119921 -0.105530 -0.483728 -0.655240 -0.659075 -0.667790 -0.680862 -0.667242 -0.655167 -0.651679 -0.644251 -0.632881 -0.620959 -0.612291 -0.608174 -0.604316 -0.598851 -0.592164 -0.582828 -0.571619 -0.560341 -0.545998 -0.524063 -0.496360 -0.468932 -0.441403 -0.409481 -0.377490 -0.353076 -0.335930 -0.323075 -0.313223 -0.303936 -0.294536 -0.286000 -0.276335 -0.263959 -0.250864 -0.239214 -0.229637 -0.220732 -0.210111 -0.197624 -0.184131 -0.168156 -0.144398 -0.105856 -0.048703 0.028875 0.122115 0.215884 0.310250 0.412485 0.484559 0.483821 0.437504 0.392296 0.369550 0.380845 0.372764 0.255363 0.069032 -0.051959 -0.082078 -0.091684 -0.106409 -0.111410 -0.110051 -0.111691 -0.115100 -0.118750 -0.121113 -0.117805 -0.109746 -0.102354 -0.096233 -0.089478 -0.082789 -0.076654 -0.070443 -0.064308 -0.058464 -0.052701 -0.047047 -0.041588 -0.036257 -0.031053 -0.026011 -0.021108 -0.016342 -0.011725 -0.007251 -0.002917 0.001272 0.005319 0.009226 0.012990 0.016614 0.020098 0.023441 0.026646 0.029713 0.032642 0.035434 0.038090 0.040612 0.042999 0.045254 0.047376 0.049369 0.051231 0.052965 0.054573 0.056054 0.057412 0.058646 0.059759 0.060753 0.061628 0.062387 0.063030 0.063561 0.063980 0.064290 0.064492 0.064589 0.064581 0.064472 0.064264 0.063958 0.063557 0.063062 0.062477 0.061804 0.061044 0.060201 0.059276 0.058273 0.057193 0.056040 0.054816 0.053524 0.052166 0.050746 0.049265 0.047728 0.046137 0.044494 0.042804 0.041068 0.039291 0.037474 0.035622 0.033738 0.031825 0.029886 0.027924 0.025944 0.023948 0.021940 0.019923 0.017902 0.015880 0.013860 0.011846 0.009842 0.007852 0.005879 0.003928 0.002002 0.000106 -0.001757 -0.003582 -0.005366 -0.007103 -0.008791 -0.010425 -0.012000 -0.013512 -0.014957 -0.016330 -0.017627 -0.018844 -0.019975 -0.021016
0.018666 -0.213178 -0.517087 -0.805241 -0.919214 -0.853385 -0.774934 -0.780154 -0.796360 -0.776469 -0.765548 -0.769626 -0.757532 -0.737714 -0.727651 -0.716538 -0.690722 -0.658991 -0.636503 -0.614063 -0.574308 -0.525372 -0.480541 -0.432204 -0.376651 -0.327938 -0.288935 -0.247681 -0.204710 -0.171553 -0.153112 -0.144852 -0.138303 -0.133652 -0.139624 -0.153560 -0.162535 -0.167056 -0.179003 -0.194932 -0.198679 -0.190734 -0.186087 -0.183962 -0.164395 -0.122742 -0.084225 -0.060344 -0.034609 -0.018979 -0.047708 -0.100687 -0.121626 -0.106859 -0.095405 -0.094957 -0.089264 -0.076323 -0.060557 -0.061077 -0.069871 0.036727 0.349429 0.685108 0.746725 0.474895 0.082624 -0.153507 -0.132795 -0.025905 -0.013074 -0.040231 -0.022977 -0.011748 -0.015426 0.000923 -0.022682 -0.100324 -0.133329 -0.109847 -0.099412 -0.101067 -0.090773 -0.082279 -0.078721 -0.071529 -0.064508 -0.059478 -0.053421 -0.047352 -0.042110 -0.036668 -0.031263 -0.026250 -0.021288 -0.016418 -0.011781 -0.007268 -0.002878 0.001335 0.005406 0.009339 0.013117 0.016749 0.020238 0.023580 0.026777 0.029832 0.032744 0.035513 0.038142 0.040630 0.042979 0.045191 0.047266 0.049206 0.051011 0.052684 0.054226 0.055637 0.056920 0.058077 0.059108 0.060016 0.060802 0.061468 0.062016 0.062449 0.062766 0.062972 0.063068 0.063056 0.062938 0.062716 0.062394 0.061972 0.061454 0.060842 0.060139 0.059347 0.058469 0.057507 0.056464 0.055343 0.054147 0.052878 0.051541 0.050136 0.048669 0.047141 0.045557 0.043918 0.042229 0.040492 0.038712 0.036891 0.035034 0.033142 0.031221 0.029274 0.027304 0.025315 0.023311 0.021296 0.019274 0.017248 0.015223 0.013202 0.011191 0.009192 0.007210 0.005250 0.003315 0.001410 -0.000460 -0.002291 -0.004079 -0.005820 -0.007507 -0.009137 -0.010706 -0.012207 -0.013637 -0.014991 -0.016264 -0.017450
0.041150 0.176916 0.220368 0.203812 0.236526 0.330266 0.391281 0.387372 0.372835 0.376768 0.384415 0.384888 0.380850 0.379039 0.381370 0.380180 0.371799 0.367115 0.371026 0.370859 0.364984 0.367118 0.373576 0.369910 0.361474 0.363341 0.372938 0.375229 0.371789 0.377873 0.387769 0.383847 0.374069 0.375185 0.379078 0.370608 0.355251 0.348123 0.347653 0.337806 0.318521 0.307457 0.304345 0.290456 0.266420 0.248920 0.235196 0.212018 0.185961 0.169228 0.155949 0.136726 0.116126 0.104023 0.100022 0.092873 0.080598 0.076053 0.078110 0.070398 0.057222 0.055987 0.061168 0.056871 0.047163 0.045228 0.047915 0.042323 0.031322 0.028889 0.032158 0.027287 0.017340 0.015295 0.018663 0.014668 0.005122 0.004460 0.011101 0.008628 -0.001759 -0.005423 -0.004431 -0.009434 -0.016995 -0.017280 -0.011969 -0.013466 -0.024380 -0.030177 -0.026288 -0.027915 -0.037653 -0.039795 -0.034578 -0.037254 -0.045507 -0.045748 -0.040527 -0.041642 -0.050021 -0.055724 -0.052284 -0.047962 -0.052748 -0.059108 -0.057777 -0.057212 -0.062501 -0.061920 -0.054813 -0.055697 -0.060468 -0.054387 -0.048065 -0.056486 -0.063907 -0.052687 -0.036880 -0.036915 -0.051890 -0.070972 -0.081925 -0.073394 -0.051712 -0.031204 -0.022659 -0.068299 -0.209493 -0.393390 -0.526444 -0.604553 -0.682387 -0.745559 -0.712110 -0.574370 -0.418675 -0.273556 -0.112884 0.016663 0.064275 0.076034 0.100936 0.122938 0.131518 0.146507 0.168046 0.181540 0.194672 0.212855 0.227986 0.249683 0.267069 0.266063 0.303531 0.346559 0.303913 0.350783 0.494029 0.235484 -0.388769 -0.663130 -0.539490 -0.504045 -0.550529 -0.514211 -0.488082 -0.494411 -0.474620 -0.454245 -0.445995 -0.429274 -0.410831 -0.396480 -0.379210 -0.360571 -0.342996 -0.324157 -0.304303 -0.284395 -0.263665 -0.242099 -0.220065 -0.197287 -0.173726 -0.149553
-0.067178 -0.087319 -0.363579 -0.671987 -0.793256 -0.823592 -0.848637 -0.849565 -0.841050 -0.838871 -0.831970 -0.821082 -0.812361 -0.808492 -0.807570 -0.802748 -0.796524 -0.793618 -0.788913 -0.780937 -0.772864 -0.761419 -0.743291 -0.719496 -0.687787 -0.646370 -0.602132 -0.558992 -0.511446 -0.462790 -0.425039 -0.398805 -0.378072 -0.361866 -0.347012 -0.328538 -0.309830 -0.295928 -0.282938 -0.267784 -0.254598 -0.241567 -0.223000 -0.204160 -0.190719 -0.177492 -0.161008 -0.143351 -0.126894 -0.114422 -0.099544 -0.066350 -0.012047 0.054282 0.137396 0.238483 0.328335 0.402870 0.505988 0.616940 0.644174 0.590272 0.542842 0.521916 0.508234 0.501536 0.448302 0.290921 0.100240 -0.007953 -0.032247 -0.043248 -0.061267 -0.064065 -0.063303 -0.089588 -0.123838 -0.128152 -0.113928 -0.106833 -0.102040 -0.093318 -0.086218 -0.080340 -0.073257 -0.066676 -0.060716 -0.054464 -0.048437 -0.042758 -0.037094 -0.031596 -0.026330 -0.021181 -0.016188 -0.011382 -0.006723 -0.002221 0.002113 0.006292 0.010315 0.014177 0.017883 0.021435 0.024831 0.028073 0.031164 0.034102 0.036890 0.039529 0.042021 0.044366 0.046566 0.048622 0.050536 0.052310 0.053945 0.055443 0.056805 0.058034 0.059131 0.060098 0.060937 0.061650 0.062239 0.062706 0.063054 0.063284 0.063399 0.063401 0.063293 0.063076 0.062754 0.062329 0.061803 0.061179 0.060460 0.059649 0.058747 0.057759 0.056687 0.055533 0.054301 0.052995 0.051616 0.050168 0.048654 0.047078 0.045442 0.043750 0.042006 0.040212 0.038373 0.036491 0.034570 0.032615 0.030628 0.028613 0.026574 0.024514 0.022439 0.020350 0.018253 0.016152 0.014050 0.011951 0.009860 0.007780 0.005717 0.003673 0.001655 -0.000335 -0.002292 -0.004211 -0.006087 -0.007917 -0.009696 -0.011418 -0.013080 -0.014677 -0.016204 -0.017655 -0.019027 -0.020314 -0.021511 -0.022614
-0.053206 0.035416 0.150160 0.081673 -0.244423 -0.566206 -0.685598 -0.690777 -0.702838 -0.714850 -0.703792 -0.695383 -0.699726 -0.700074 -0.695857 -0.689599 -0.676822 -0.668841 -0.671538 -0.667908 -0.655253 -0.646483 -0.635710 -0.616042 -0.594708 -0.565226 -0.522131 -0.482777 -0.447980 -0.403805 -0.365797 -0.344816 -0.320454 -0.295627 -0.292881 -0.299588 -0.288868 -0.266240 -0.255360 -0.252409 -0.236499 -0.220667 -0.220548 -0.211340 -0.186776 -0.174754 -0.173742 -0.162059 -0.142541 -0.126481 -0.109574 -0.089763 -0.078937 -0.075175 -0.063349 -0.047007 -0.033975 -0.022395 -0.016753 -0.014959 -0.002692 0.025048 0.056750 0.073359 0.077076 0.089098 0.099966 0.087081 0.068589 0.070432 0.081675 0.083349 0.080118 0.084300 0.101560 0.129128 0.132800 0.120967 0.258400 0.601888 0.795182 0.558851 0.213387 0.130533 0.190547 0.197539 0.192443 0.206857 0.209177 0.220678 0.231450 0.209746 0.227264 0.284554 0.206824 0.006215 -0.081760 -0.041776 -0.030470 -0.045605 -0.034483 -0.026921 -0.029994 -0.024976 -0.020055 -0.019285 -0.016082 -0.012613 -0.010739 -0.008218 -0.005553 -0.003522 -0.001386 0.000773 0.002646 0.004471 0.006252 0.007872 0.009406 0.010866 0.012211 0.013463 0.014632 0.015704 0.016686 0.017583 0.018391 0.019114 0.019755 0.020313 0.020791 0.021191 0.021514 0.021762 0.021936 0.022039 0.022073 0.022038 0.021938 0.021773 0.021547 0.021260 0.020915 0.020514 0.020059 0.019552 0.018995 0.018390 0.017740 0.017047 0.016312 0.015538 0.014728 0.013884 0.013008 0.012102 0.011169 0.010211 0.009231 0.008232 0.007214 0.006183 0.005138 0.004085 0.003024 0.001959 0.000892 -0.000174 -0.001236 -0.002291 -0.003338 -0.004372 -0.005392 -0.006393 -0.007374 -0.008332 -0.009263 -0.010165 -0.011034 -0.011867 -0.012663 -0.013416 -0.014125 -0.014786 -0.015397 -0.015953
-0.016839 -0.022535 -0.206460 -0.561870 -0.834028 -0.865828 -0.818173 -0.837443 -0.861134 -0.844267 -0.835392 -0.843832 -0.840096 -0.825714 -0.816433 -0.810181 -0.796691 -0.774419 -0.750120 -0.725046 -0.694423 -0.659701 -0.624391 -0.586628 -0.543362 -0.495141 -0.449335 -0.408178 -0.361609 -0.314106 -0.284645 -0.269414 -0.250428 -0.228947 -0.217101 -0.214966 -0.213488 -0.212946 -0.219315 -0.226386 -0.228506 -0.229369 -0.224074 -0.210097 -0.196736 -0.181729 -0.161988 -0.148895 -0.139737 -0.119332 -0.089530 -0.059590 -0.029958 -0.001942 0.012615 0.001745 -0.025287 -0.043004 -0.040681 -0.030796 -0.023594 -0.012759 0.000279 0.007002 0.019175 0.027042 0.022986 0.129134 0.431640 0.693918 0.623813 0.300134 0.012573 -0.086260 -0.031093 0.042549 0.049157 0.039843 0.053163 0.050987 0.053469 0.081081 0.051209 -0.040796 -0.078933 -0.054307 -0.044951 -0.048420 -0.038656 -0.031149 -0.028936 -0.022672 -0.016690 -0.012856 -0.007864 -0.002885 0.001199 0.005521 0.009798 0.013655 0.017470 0.021189 0.024662 0.028012 0.031237 0.034280 0.037181 0.039943 0.042548 0.045008 0.047327 0.049500 0.051530 0.053421 0.055171 0.056784 0.058261 0.059603 0.060813 0.061892 0.062841 0.063663 0.064360 0.064933 0.065385 0.065718 0.065933 0.066034 0.066022 0.065899 0.065668 0.065332 0.064893 0.064352 0.063714 0.062980 0.062153 0.061236 0.060232 0.059143 0.057972 0.056723 0.055397 0.053999 0.052531 0.050996 0.049398 0.047739 0.046023 0.044254 0.042434 0.040567 0.038656 0.036705 0.034718 0.032698 0.030649 0.028574 0.026477 0.024362 0.022233 0.020093 0.017947 0.015799 0.013652 0.011510 0.009379 0.007261 0.005162 0.003085 0.001034 -0.000985 -0.002969 -0.004913 -0.006812 -0.008663 -0.010460 -0.012199 -0.013875 -0.015484 -0.017020 -0.018479 -0.019857 -0.021147 -0.022345 -0.023447
-0.055450 0.058704 0.017709 -0.260587 -0.579528 -0.715966 -0.733122 -0.749753 -0.754720 -0.742839 -0.740203 -0.739151 -0.729100 -0.717739 -0.707941 -0.698840 -0.695448 -0.696563 -0.690183 -0.674669 -0.663138 -0.659713 -0.654513 -0.639736 -0.615698 -0.586331 -0.555119 -0.524083 -0.491066 -0.450995 -0.407894 -0.374212 -0.354365 -0.343447 -0.335924 -0.326568 -0.311680 -0.292895 -0.278850 -0.274672 -0.268027 -0.248115 -0.227051 -0.215608 -0.206467 -0.194007 -0.180167 -0.162136 -0.131974 -0.086538 -0.025952 0.056623 0.160819 0.264677 0.354812 0.434659 0.483958 0.482495 0.458829 0.441361 0.440465 0.481303 0.512231 0.405097 0.181752 0.013763 -0.041561 -0.060923 -0.079984 -0.085059 -0.083641 -0.086084 -0.085402 -0.083158 -0.088066 -0.093225 -0.091006 -0.087807 -0.085126 -0.078269 -0.070473 -0.064790 -0.058725 -0.052197 -0.046465 -0.040795 -0.035025 -0.029619 -0.024363 -0.019164 -0.014186 -0.009371 -0.004674 -0.000151 0.004212 0.008435 0.012499 0.016408 0.020169 0.023779 0.027236 0.030546 0.033706 0.036719 0.039585 0.042306 0.044883 0.047316 0.049607 0.051757 0.053768 0.055641 0.057378 0.058979 0.060447 0.061782 0.062988 0.064064 0.065014 0.065838 0.066540 0.067120 0.067580 0.067923 0.068151 0.068266 0.068269 0.068164 0.067951 0.067635 0.067216 0.066698 0.066083 0.065373 0.064571 0.063679 0.062701 0.061638 0.060493 0.059270 0.057972 0.056600 0.055158 0.053648 0.052075 0.050441 0.048749 0.047001 0.045203 0.043356 0.041464 0.039530 0.037557 0.035550 0.033511 0.031445 0.029354 0.027242 0.025113 0.022970 0.020818 0.018659 0.016499 0.014340 0.012187 0.010044 0.007914 0.005802 0.003711 0.001646 -0.000388 -0.002389 -0.004351 -0.006270 -0.008142 -0.009962 -0.011727 -0.013431 -0.015070 -0.016639 -0.018134 -0.019551 -0.020884 -0.022129 -0.023281 -0.024335
